Timestamp_ms,Raw_ECG
1,34552
12,32679
22,33032
33,33352
43,33768
54,34216
64,33944
74,34376
85,34856
95,35096
106,35896
116,36776
126,37353
136,38393
147,39433
157,40393
168,41434
178,41434
188,41754
198,42522
208,39977
219,36488
229,33416
239,30663
249,29335
260,29367
270,28823
281,28502
291,28326
301,28775
312,28855
322,29495
332,29527
342,29767
353,30023
363,30055
374,30487
384,30535
394,30247
404,30423
414,30871
425,30679
435,30567
446,31463
456,31559
467,32583
477,33896
488,33480
498,32808
508,31511
519,30007
560,30263
571,30999
581,31127
592,31271
602,34888
613,48523
623,48475
633,13139
644,27782
654,34504
665,32904
675,33176
686,33272
696,33672
707,34312
717,34328
727,34760
738,35272
748,35320
759,36072
769,36680
780,37385
790,38281
801,39225
811,40073
821,40953
832,41946
842,42250
853,42234
863,39801
874,36120
884,32952
895,31047
905,29575
915,29255
925,28791
935,28855
946,28807
956,29335
967,29447
977,29831
988,29927
998,30295
1009,30343
1019,30743
1029,30967
1040,30871
1050,31111
1061,30887
1071,31047
1085,31015
1095,31287
1105,30919
1115,30999
1126,31335
1136,31191
1147,31255
1157,31191
1167,31543
1178,31831
1189,31703
1199,32663
1209,32711
1219,33608
1229,34312
1240,34728
1250,33672
1261,32391
1271,31319
1281,31575
1292,31879
1302,31559
1312,31719
1322,31783
1333,32151
1343,32055
1354,39385
1364,52300
1374,34184
1385,18100
1395,33016
1405,34536
1415,33736
1426,33864
1436,33880
1447,34200
1457,34584
1468,34904
1478,35096
1488,35608
1499,35720
1509,36200
1519,36873
1529,37577
1540,38105
1550,39017
1561,39977
1571,40553
1581,41194
1592,41706
1602,41370
1612,39993
1622,36680
1633,33800
1643,31335
1654,29895
1664,29351
1675,29031
1685,28759
1695,28967
1706,29159
1716,29463
1727,29367
1737,29735
1748,30055
1758,30423
1769,30167
1779,30455
1789,30967
1800,30631
1810,30471
1820,30919
1830,30775
1841,29991
1851,30967
1862,30263
1872,30631
1882,30487
1893,30599
1903,30919
1914,30727
1924,31063
1934,31847
1945,32792
1955,33480
1966,33704
1976,32984
1986,31191
1997,30631
2007,30551
2018,30647
2028,30695
2039,30375
2052,30807
2063,30791
2073,31703
2084,40953
2094,51980
2105,25286
2115,18612
2126,32792
2136,33384
2147,32904
2157,33288
2168,33848
2178,33656
2188,33976
2199,34360
2209,34472
2220,34840
2230,35368
2241,36424
2251,36488
2262,37289
2272,37977
2282,39273
2292,39609
2302,40617
2313,41098
2323,41306
2334,41002
2344,38537
2355,34904
2365,32151
2376,30295
2386,29575
2396,28646
2407,28438
2417,28679
2428,28759
2438,28839
2448,28791
2459,29367
2469,29351
2480,29879
2490,30519
2500,29815
2511,30295
2521,30295
2532,30279
2542,30823
2553,29767
2563,30615
2574,30887
2584,31063
2594,32535
2605,33000
2615,33544
2626,32135
2636,30407
2647,29607
2657,29783
2668,29943
2678,29879
2688,29735
2699,30471
2709,30119
2720,31799
2730,42042
2740,52284
2751,21189
2762,17844
2772,33448
2782,33224
2793,32439
2803,33352
2814,33256
2824,33864
2834,34488
2845,34264
2855,35080
2865,35256
2875,35112
2886,36360
2896,37065
2907,37449
2917,38953
2927,39721
2937,41098
2947,41194
2958,41818
2968,41962
2979,41242
2989,38185
3000,34088
3010,31943
3023,29863
3034,29447
3045,29031
3055,29015
3066,28839
3076,29079
3087,29543
3097,29479
3108,30215
3118,30471
3128,30455
3139,30743
3149,30391
3160,31239
3170,30999
3180,31335
3191,31495
3201,31543
3211,32487
3222,33496
3232,34312
3243,33384
3253,31911
3264,30455
3274,30023
3284,30535
3295,30423
3305,30487
3315,31159
3325,30983
3335,30775
3346,33128
3356,45323
3367,53965
3377,18276
3388,21253
3398,33672
3408,33000
3418,33448
3428,33752
3439,33384
3449,33640
3460,34248
3470,34408
3481,35096
3491,35080
3502,35864
3512,36488
3522,37161
3533,37929
3543,39209
3554,39529
3564,40970
3574,41482
3585,42298
3595,41738
3606,40489
3616,36696
3626,32856
3637,31527
3647,29719
3658,29303
3668,28582
3678,28422
3689,28646
3699,28775
3709,29351
3719,29543
3729,29703
3740,29703
3750,30311
3761,30631
3771,30487
3781,30919
3792,31111
3803,30903
3813,30919
3823,31223
3834,31031
3844,32167
3855,32311
3865,33176
3875,34184
3886,33688
3896,32663
3906,31143
3916,30423
3927,30743
3937,30743
3948,30679
3958,30759
3968,30855
3978,30999
3991,32679
4031,14291
4041,32679
4052,33864
4062,33480
4073,33592
4083,33368
4093,33864
4104,34632
4114,34472
4125,35112
4135,35768
4145,35896
4155,36568
4166,36760
4176,37913
4187,38585
4197,39609
4208,40953
4218,41450
4228,41738
4239,42378
4249,41530
4260,38473
4270,34648
4281,32215
4291,30327
4301,29751
4311,28999
4321,29127
4332,28775
4342,29287
4352,29271
4363,29495
4373,29767
4384,30039
4394,30359
4404,30343
4415,30807
4425,30855
4436,30663
4446,30807
4456,31127
4466,30903
4477,30887
4487,30631
4498,31031
4508,31063
4518,30887
4529,30919
4539,31703
4550,32583
4560,33240
4571,34072
4581,34536
4592,33384
4602,31815
4613,30903
4623,31191
4633,31367
4644,31559
4654,31223
4664,31687
4674,31639
4685,31815
4695,38025
4706,51356
4716,38761
4726,15795
4737,32647
4747,34504
4758,33752
4768,33896
4779,34120
4789,34216
4800,34872
4810,34920
4820,35128
4831,35672
4841,36024
4852,36552
4862,36856
4872,37593
4883,38377
4893,39273
4904,40089
4914,40809
4924,41114
4935,41818
4945,41530
4956,39369
4966,35752
4976,32792
4990,30439
5000,29367
5011,28999
5021,28807
5032,29031
5042,29575
5052,29911
5063,29671
5074,29719
5084,30391
5095,30599
5105,30359
5115,30631
5125,30503
5135,30599
5146,30567
5156,30855
5167,30647
5177,30487
5187,30599
5197,30791
5208,30519
5218,30823
5229,31159
5239,30903
5249,30759
5260,30823
5270,31527
5281,32263
5291,32487
5302,33928
5312,34200
5323,33032
5333,31447
5343,30983
5353,30871
5363,30839
5374,31047
5384,31319
5394,31255
5405,31175
5415,31159
5425,36296
5436,49452
5446,41434
5457,15635
5467,30023
5477,33976
5488,33384
5498,33544
5509,33512
5519,34136
5529,34280
5540,34776
5550,35208
5561,35096
5571,35304
5581,35784
5592,36680
5603,37097
5613,37801
5623,38873
5634,39113
5644,40233
5655,40505
5665,41498
5675,40953
5686,39369
5696,35944
5706,33304
5716,30791
5727,29751
5737,29543
5748,28871
5758,28679
5768,28454
5779,29063
5789,29159
5800,29319
5810,30103
5820,29687
5831,30327
5841,30295
5852,30135
5862,30551
5872,30679
5883,30631
5893,30519
5904,30743
5914,30407
5925,30631
5935,30823
5946,31303
5959,31767
5970,33416
5980,33704
5991,33192
6001,31623
6012,30167
6022,30471
6033,30615
6043,30183
6054,30503
6064,30679
6074,30679
6085,30119
6095,32824
6106,46283
6116,49996
6127,14211
6137,23157
6148,33448
6158,33128
6168,33736
6179,32904
6189,33800
6200,33816
6210,33832
6221,35096
6231,34904
6242,35448
6252,35928
6262,36953
6273,37337
6283,38137
6294,39577
6304,40217
6314,40697
6325,41210
6336,42186
6346,41482
6356,39993
6367,36136
6377,32984
6388,30791
6398,29463
6408,29175
6419,28871
6430,28214
6440,29191
6450,28903
6461,29543
6471,29271
6482,30103
6492,29799
6502,30967
6512,30263
6522,30983
6533,30935
6543,30631
6553,30807
6563,31271
6574,31079
6584,32087
6595,32936
6605,33416
6615,34008
6626,32583
6636,31975
6646,30183
6656,30231
6667,30519
6677,29495
6688,30663
6698,30791
6708,30343
6718,30615
6728,34776
6739,49164
6749,49436
6759,12483
6770,25094
6780,34200
6791,33320
6801,33048
6811,33192
6822,34440
6832,33816
6843,34088
6853,34648
6863,35000
6874,36072
6884,36264
6895,36873
6905,36873
6915,38281
6928,39433
6938,40953
6949,40953
6959,41562
6970,42074
6980,40809
6991,38489
7001,33992
7011,31783
7022,30119
7032,29335
7043,29271
7053,28502
7063,28823
7074,28855
7084,28550
7095,29383
7105,28983
7115,29895
7125,30375
7135,30999
7146,30087
7156,30567
7166,31383
7176,31287
7187,30759
7197,31079
7208,32231
7218,31943
7228,33288
7238,34072
7248,33720
7259,32503
7269,31079
7279,30871
7289,30679
7299,30023
7310,30167
7320,30311
7331,30999
7341,30935
7351,31367
7362,39385
7372,51484
7382,41802
7392,11506
7403,29927
7413,34520
7424,32503
7434,33128
7444,33592
7455,33992
7465,33416
7475,34456
7485,34792
7496,34680
7506,35800
7517,36008
7527,37097
7537,37385
7548,38489
7558,39705
7569,40089
7579,41642
7589,41290
7600,41994
7610,40953
7621,38505
7631,34104
7641,31527
7651,30343
7661,28422
7672,28935
7682,28326
7693,28582
7703,28967
7714,29127
7724,29031
7735,29335
7745,29719
7755,30247
7766,30023
7776,30855
7786,30439
7796,30503
7807,31175
7817,31063
7828,30695
7838,30951
7848,31063
7859,30791
7869,31047
7880,31191
7893,32039
7933,32792
7944,31831
7954,30295
7965,30407
7975,30999
7985,30487
7996,30791
8006,31031
8017,31271
8028,30935
8038,37785
8048,51724
8059,40953
8069,12627
8080,31111
8090,34280
8100,33208
8111,33480
8122,33928
8132,34184
8142,34472
8153,34504
8163,34968
8174,35416
8184,35992
8195,35976
8205,36808
8215,37993
8226,38521
8236,39913
8247,40553
8257,41130
8267,41530
8278,42026
8288,41434
8299,38985
8309,35112
8319,32455
8330,30199
8340,29447
8350,29063
8360,29431
8371,28727
8381,29127
8392,29255
8402,29511
8412,30055
8423,30263
8433,30311
8443,30471
8453,30503
8464,31239
8474,30999
8485,30999
8495,30999
8506,31559
8516,31303
8526,30935
8537,31047
8547,31047
8558,31495
8568,31223
8579,31415
8589,31447
8599,31639
8609,31911
8619,32359
8630,33224
8640,33608
8650,34344
8661,34648
8671,33640
8682,32039
8692,31207
8702,31383
8712,31415
8722,31543
8733,31719
8743,31767
8753,31879
8763,31927
8774,39385
8784,52508
8795,35864
8805,16484
8815,33496
8826,34536
8836,33560
8847,33784
8857,33768
8867,34136
8878,34584
8891,34904
8902,35160
8912,35736
8923,35800
8933,36504
8943,36937
8953,37689
8963,38889
8974,39593
8984,40489
8995,41114
9005,41498
9015,42154
9025,41354
9035,39113
9046,35480
9056,32615
9066,30743
9076,29639
9087,29063
9097,29175
9108,29031
9118,29031
9128,29623
9138,29639
9148,30167
9159,30471
9169,30519
9180,30503
9190,30487
9200,30599
9211,30663
9221,31111
9232,30679
9242,31063
9252,30647
9263,30871
9273,31015
9283,31111
9293,30775
9304,31111
9314,31063
9325,30999
9335,31511
9345,31799
9356,32295
9366,33176
9376,33976
9386,34264
9397,33816
9407,32167
9418,30791
9428,30935
9438,31367
9449,31399
9459,31287
9470,31367
9480,31399
9491,31607
9501,37081
9512,50364
9522,39289
9532,15587
9542,30359
9552,34344
9563,33128
9573,33416
9583,33928
9593,33768
9604,34472
9614,34232
9625,34904
9635,35288
9645,35400
9656,35720
9666,36488
9677,37337
9687,37785
9697,38825
9708,39705
9718,40633
9729,40953
9739,41194
9749,41482
9760,40089
9770,36840
9781,33448
9791,31447
9802,29831
9812,29111
9823,29111
9833,28999
9843,29335
9856,29239
9866,29863
9877,29671
9888,29895
9898,30423
9909,30167
9919,30487
9930,30279
9940,30567
9950,30823
9961,30439
9971,30615
9982,30503
9992,30631
10002,30935
10013,30567
10023,30567
10034,30743
10044,31079
10054,31383
10065,32103
10075,32487
10086,33848
10096,34344
10106,33128
10116,31767
10127,30471
10137,30807
10148,30855
10158,30919
10168,30631
10179,30919
10189,31063
10200,31431
10210,39593
10221,52044
10231,28310
10242,18276
10252,32071
10262,34024
10273,33080
10283,33512
10294,33720
10304,33736
10314,34632
10325,34312
10335,34776
10345,35400
10356,35640
10366,36216
10377,36808
10387,37641
10398,38297
10408,39465
10418,40457
10429,40329
10439,40953
10449,41610
10460,40937
10470,38505
10481,35416
10491,32359
10502,30151
10512,29735
10523,29175
10533,28999
10544,29335
10554,28679
10564,29287
10575,29831
10585,29527
10596,29911
10606,30359
10617,30247
10627,30823
10638,30535
10648,30615
10658,31111
10669,30711
10679,30759
10690,30807
10700,30743
10710,31447
10721,32039
10731,32519
10741,33816
10755,33688
10765,32199
10776,30519
10786,30167
10797,30535
10807,31255
10818,30791
10828,30407
10838,30839
10848,30567
10859,32647
10869,43498
10880,52812
10890,21381
10901,19348
10911,33496
10921,33112
10932,33480
10942,33320
10952,34168
10962,34248
10973,34280
10983,34344
10994,35272
11004,35224
11014,36328
11025,36008
11035,37001
11045,37577
11055,38681
11066,39849
11076,40537
11087,41770
11097,42570
11108,42186
11118,40953
11128,37641
11139,34600
11149,31511
11159,29959
11169,29191
11180,28502
11190,28070
11201,28727
11211,28967
11221,28598
11232,29271
11242,29239
11252,29527
11262,30503
11273,29879
11283,30151
11294,31063
11304,29879
11315,30727
11325,30759
11335,30119
11346,30967
11356,31831
11366,32151
11376,33176
11387,33720
11397,32535
11408,30295
11418,30119
11428,29543
11439,30295
11449,29863
11459,29911
11469,29991
11480,31047
11490,31319
11501,38841
11511,52268
11521,35544
11532,11938
11542,30887
11553,33384
11563,33048
11574,32615
11584,33464
11595,33352
11605,33992
11615,34104
11626,34136
11636,34824
11675,37449
11687,38505
11697,39737
11708,40457
11718,41514
11728,41706
11739,42346
11749,40841
11760,38105
11770,34856
11780,31111
11790,29847
11801,29159
11811,28326
11822,28550
11832,27910
11842,29079
11853,28070
11863,29463
11874,29015
11884,30103
11895,29831
11905,30039
11916,30343
11926,31239
11936,30631
11947,30823
11957,30471
11968,31335
11978,31575
11988,32920
11999,34024
12010,32920
12020,32423
12030,30695
12041,29751
12051,30423
12062,30023
12072,30023
12083,30087
12093,30599
12104,31559
12114,30935
12124,38809
12134,51548
12144,40153
12155,11666
12165,31223
12176,33656
12186,33432
12196,32952
12207,33592
12218,33416
12228,34824
12238,34392
12249,34936
12259,35560
12270,35416
12280,36360
12290,37353
12301,37929
12311,38873
12321,39737
12331,40713
12342,41690
12352,42010
12363,42666
12373,41034
12384,38041
12394,34216
12404,31543
12415,29479
12425,29351
12436,28454
12446,28711
12457,28983
12467,28662
12478,28999
12488,29447
12498,29719
12509,30199
12519,30231
12529,30615
12539,30647
12550,30743
12563,30935
12574,30855
12584,31127
12595,30999
12605,31143
12616,31383
12626,32087
12636,33032
12646,33608
12657,33768
12667,32215
12678,31063
12688,30087
12698,30359
12709,30375
12719,30359
12730,31143
12740,30743
12751,30791
12761,31543
12772,40793
12782,53965
12792,35000
12802,13203
12812,32551
12823,34056
12833,33416
12843,33368
12853,33672
12864,33992
12874,34232
12885,34872
12895,34696
12906,35336
12916,36264
12926,36440
12937,36953
12947,37673
12957,38377
12968,39817
12978,40857
12989,41226
12999,41706
13009,42202
13020,41370
13030,38345
13041,34728
13051,31767
13062,30151
13072,29191
13083,28871
13093,29175
13104,28759
13114,29063
13124,29799
13135,29623
13145,29895
13155,30023
13165,30423
13176,30183
13186,30519
13197,30663
13207,30855
13217,30647
13227,30807
13237,30775
13248,30823
13258,30903
13268,30999
13279,30759
13289,31239
13300,32055
13310,32343
13320,33384
13331,34072
13341,34248
13352,32968
13362,31207
13372,30567
13383,30791
13393,31415
13404,30999
13414,31399
13424,31463
13435,31191
13448,34488
13459,48539
13470,49019
13480,14771
13491,27734
13501,34904
13512,33416
13522,33512
13532,34136
13543,34056
13553,34664
13564,34888
13574,35144
13585,35672
13595,35656
13606,36008
13616,36632
13626,37353
13637,38345
13647,39513
13658,40041
13668,41130
13678,41322
13689,41594
13699,41930
13710,39593
13720,36520
13730,33208
13740,30855
13750,29655
13761,29111
13771,28855
13781,28951
13792,29143
13802,29095
13812,29479
13823,29927
13833,30087
13844,30247
13854,30343
13864,30631
13874,30679
13885,30471
13895,30727
13905,30871
13915,31031
13925,30855
13936,31207
13946,30871
13957,30887
13967,30919
13978,30983
13988,31047
13999,31287
14009,31623
14019,32199
14030,32776
14040,34328
14051,34232
14061,33832
14071,32471
14082,30999
14092,31063
14103,31207
14113,31351
14123,31463
14134,31495
14144,31463
14155,31287
14165,34728
14175,47371
14186,47115
14197,15299
14207,28679
14217,34744
14228,33768
14238,33720
14249,34040
14259,34248
14269,34392
14280,35128
14290,35176
14300,35672
14310,35720
14321,36248
14334,37049
14345,37913
14355,38457
14366,39593
14376,40105
14387,40793
14397,41306
14407,41930
14418,41578
14428,39513
14438,36264
14449,33256
14459,31207
14470,29783
14480,29223
14490,29383
14501,29543
14511,29495
14522,29703
14532,29831
14542,30023
14553,30439
14563,30375
14574,30439
14584,30519
14594,30791
14605,30935
14616,30727
14626,31047
14636,30775
14647,31207
14657,30807
14668,30615
14678,30759
14689,30871
14699,30871
14710,31191
14720,31463
14730,32407
14741,32727
14751,34152
14762,34248
14772,33000
14782,31751
14792,30951
14802,30775
14813,30919
14823,31399
14833,31111
14844,31367
14854,31879
14865,31767
14875,38409
14886,51772
14896,34376
14906,16964
14917,31559
14927,34248
14937,33592
14947,33960
14957,33960
14968,34184
14978,34328
14989,34696
14999,34920
15009,35224
15020,36072
15031,36424
15041,36824
15051,37529
15062,38185
15072,38809
15083,40105
15093,40713
15103,41322
15114,41418
15124,41034
15134,38937
15144,35576
15155,32695
15165,30855
15176,29431
15186,29335
15196,29383
15206,29079
15216,28662
15256,29927
15267,29895
15277,30551
15288,30343
15298,30679
15308,30935
15319,30727
15329,30919
15340,31047
15350,30567
15361,30727
15371,31031
15382,31655
15392,32391
15403,33320
15413,33464
15423,33080
15434,31703
15444,30439
15455,30567
15465,30135
15475,30503
15486,30887
15496,30439
15506,31047
15516,30695
15526,33224
15537,45723
15547,52188
15558,17492
15568,21445
15578,33992
15589,32984
15599,33032
15610,33048
15620,33992
15630,33576
15641,34312
15651,34200
15662,34728
15672,35464
15682,35688
15693,36696
15703,37337
15713,37977
15724,38921
15734,40217
15745,40761
15755,41642
15765,41946
15775,41498
15786,40585
15796,36504
15806,33048
15817,30615
15827,29495
15838,28406
15848,28358
15858,28390
15868,28438
15879,28486
15889,29063
15899,29383
15910,29239
15920,29495
15931,30039
15941,29623
15952,30743
15962,30135
15972,30343
15983,30631
15993,30503
16004,30631
16014,31015
16025,31239
16035,32183
16046,33624
16056,33400
16066,32904
16077,31575
16087,30487
16097,29911
16108,30039
16118,30615
16131,30775
16141,30743
16152,30663
16162,30743
16173,35928
16183,50508
16194,44890
16204,11538
16215,28470
16225,34120
16236,32872
16246,33496
16257,33800
16267,33784
16277,34216
16288,34440
16298,34792
16308,35208
16318,35848
16329,36232
16339,36760
16350,37977
16360,38505
16370,39737
16381,40553
16391,41450
16402,42330
16412,42074
16422,41066
16433,38553
16443,34664
16454,31575
16464,30551
16474,28935
16485,28679
16495,28871
16506,28951
16516,29095
16527,28358
16537,29351
16548,29319
16558,30119
16568,30055
16578,30775
16588,30615
16599,30247
16609,30663
16619,30775
16629,30791
16640,30871
16650,30983
16661,32167
16671,31799
16681,33720
16692,34344
16702,33592
16713,31959
16723,30343
16734,30103
16744,30295
16755,30647
16765,29991
16776,31111
16786,30519
16796,30871
16807,32856
16817,44858
16827,53981
16837,22261
16848,19076
16858,34600
16869,33384
16879,33288
16889,33256
16900,33448
16910,33704
16921,34136
16931,34904
16942,35240
16952,35256
16963,36104
16973,36584
16983,37513
16994,37849
17004,39177
17017,40361
17028,40937
17038,41802
17049,42522
17059,41866
17070,39433
17080,35288
17090,32455
17101,29975
17111,29063
17122,28550
17132,28951
17142,28646
17153,28727
17163,29607
17174,29111
17184,29719
17195,29591
17205,29719
17215,30647
17226,30279
17236,30535
17246,30871
17256,30567
17267,30935
17277,30807
17288,30807
17298,30599
17308,31223
17319,31799
17329,31943
17340,33592
17350,33352
17361,33336
17371,32199
17382,30279
17392,30087
17402,30871
17413,30759
17423,30663
17434,30855
17444,31031
17454,31111
17464,31911
17475,42730
17485,54909
17496,23813
17506,17828
17516,34312
17527,33416
17537,33096
17548,33496
17558,33704
17569,33944
17579,34008
17590,34520
17600,34760
17610,35256
17621,35688
17631,36328
17642,37129
17652,38089
17662,38873
17673,40457
17683,40601
17694,41130
17704,42186
17714,42410
17725,40665
17735,37017
17746,34056
17756,31303
17766,29751
17776,28807
17787,28855
17797,28486
17808,28679
17818,29079
17828,29207
17839,29703
17849,29991
17860,30135
17870,30039
17880,30647
17891,30599
17901,30823
17914,30775
17925,30743
17936,31063
17946,30871
17956,31159
17967,31159
17977,30951
17987,30903
17998,30887
18008,31271
18019,31159
18029,31495
18039,31927
18050,32439
18060,32952
18071,34392
18081,34696
18091,33864
18102,32183
18112,30839
18123,31319
18133,31015
18144,30903
18154,31511
18164,31431
18175,31767
18185,31223
18195,35560
18205,48859
18216,48555
18226,14931
18237,29255
18247,35016
18257,33672
18268,33592
18278,34360
18288,34472
18298,34072
18309,34840
18319,34776
18330,35032
18340,35688
18350,36440
18361,36568
18371,37337
18382,38489
18392,39321
18403,40105
18413,40953
18424,41450
18434,42170
18444,42058
18455,40153
18465,36568
18476,33880
18486,31175
18496,29655
18507,29191
18517,28807
18528,28823
18538,29271
18549,29207
18559,29431
18569,30135
18580,30423
18590,30199
18600,30311
18611,30263
18621,30391
18632,30871
18642,31063
18652,30631
18663,30855
18673,30951
18684,30727
18694,30919
18704,31271
18715,31015
18725,30823
18736,30903
18746,31015
18756,31271
18766,31031
18776,31111
18787,31783
18828,32615
18838,33544
18849,34216
18859,34520
18870,33592
18880,32023
18891,31431
18901,31575
18911,31671
18922,31591
18932,31847
18942,31815
18952,32167
18963,32599
18973,41738
18984,52460
18994,25190
19005,21557
19015,34296
19025,34376
19036,33528
19046,33976
19057,34104
19067,34520
19078,34824
19088,34728
19098,35544
19109,35576
19119,36136
19130,36744
19140,37033
19150,37817
19161,38857
19171,39369
19182,40281
19192,40905
19203,41514
19213,41610
19223,41306
19234,38713
19244,35192
19254,32391
19264,30359
19275,29575
19285,29223
19296,28807
19306,28871
19316,29463
19327,29719
19337,29975
19348,29655
19358,29975
19369,30535
19379,30535
19390,30295
19400,30551
19411,30423
19421,30423
19431,30487
19442,30903
19452,30375
19462,30759
19472,30999
19483,30743
19493,30359
19504,30935
19514,30727
19524,31383
19535,32007
19545,32343
19556,33352
19566,33672
19577,33352
19587,31927
19598,30471
19608,30615
19618,30855
19629,30503
19639,30535
19650,30999
19660,31335
19670,30775
19681,34584
19691,47195
19702,47307
19715,14403
19726,31351
19736,33688
19746,33432
19756,33496
19767,33816
19777,34072
19788,34424
19798,34696
19809,34664
19819,35128
19829,35736
19840,35928
19850,36776
19861,37769
19871,38553
19881,39177
19892,40361
19902,40777
19913,41098
19923,42010
19933,41050
19944,38985
19954,35768
19965,32519
19975,30503
19985,29239
19996,28470
20006,28582
20017,28294
20027,28807
20037,29111
20047,29351
20057,29719
20068,30215
20078,29783
20088,29943
20098,30279
20109,30183
20119,30407
20130,30567
20140,30295
20150,30551
20161,30135
20171,30599
20182,30615
20192,31191
20202,31559
20213,32647
20223,33224
20234,33704
20244,32519
20254,31239
20265,30231
20275,30919
20286,29991
20296,30503
20307,30775
20317,30727
20328,30791
20338,31159
20349,41114
20359,53549
20369,27926
20380,15219
20390,32599
20400,33416
20410,33672
20421,33336
20431,33752
20442,33848
20452,34504
20462,34520
20473,35208
20483,35272
20494,35880
20504,36840
20514,37145
20525,38489
20535,38825
20546,39977
20556,41098
20566,41786
20577,41994
20587,42458
20601,39897
20612,36696
20622,33032
20633,31239
20643,29863
20653,28951
20664,28230
20674,28214
20685,29351
20695,28326
20706,29127
20716,29719
20727,29671
20737,30167
20748,30103
20758,30103
20768,30727
20779,30807
20789,31255
20800,30391
20810,31063
20821,30887
20831,30855
20842,31687
20852,32023
20862,32936
20873,34024
20883,33160
20894,31911
20904,30727
20915,30231
20925,29959
20936,29959
20946,30775
20956,30919
20967,30743
20977,30727
20988,33384
20998,45259
21008,53277
21019,17588
21030,21381
21040,34072
21050,33480
21061,33560
21071,33672
21082,34136
21092,34104
21102,34088
21112,34504
21123,35000
21133,35528
21143,36905
21154,36328
21164,37721
21175,38457
21185,39401
21195,39977
21205,41274
21215,41530
21226,42650
21236,42378
21246,40537
21257,36328
21272,32647
21282,30311
21293,29671
21303,28470
21313,28502
21323,28679
21334,28438
21344,29383
21355,29143
21365,29079
21375,29783
21386,30119
21396,30103
21407,30791
21417,30519
21427,30343
21438,30807
21448,30551
21459,31111
21469,31447
21479,31943
21490,32199
21503,33832
21514,33800
21524,32904
21535,31127
21545,30279
21555,30295
21565,30151
21576,30359
21586,30343
21597,30743
21607,30375
21618,31239
21628,38073
21638,50668
21649,41930
21660,11234
21670,30439
21680,34152
21691,33240
21701,33464
21712,34024
21722,33768
21732,34280
21743,34696
21754,34696
21764,34952
21774,35496
21785,36120
21795,37177
21806,37593
21816,38713
21826,39561
21836,40793
21846,40953
21857,41722
21867,41882
21878,40953
21888,37577
21899,34136
21909,31543
21920,29591
21930,28614
21940,28246
21951,28759
21961,28502
21971,28502
21981,28935
21992,29143
22002,29351
22013,29415
22023,29607
22033,30231
22044,30183
22054,30503
22065,30999
22075,30231
22086,30599
22096,30535
22107,30471
22117,30647
22127,30775
22138,31143
22148,31511
22159,31831
22169,33576
22179,33352
22190,33208
22200,32471
22211,30775
22221,30279
22231,31063
22241,30791
22251,30551
22262,30519
22272,30919
22282,31431
22292,32055
22303,41530
22313,52956
22324,28038
22334,15491
22345,33464
22355,33752
22365,33432
22376,33592
22416,34888
22426,34856
22437,35512
22447,35848
22458,36648
22468,37257
22479,37641
22489,38697
22499,40121
22510,40761
22520,41178
22531,41930
22541,42090
22552,41322
22562,38073
22572,34664
22583,31559
22593,30535
22604,29639
22614,28999
22624,28903
22635,28871
22645,29079
22656,29879
22666,30087
22676,30023
22687,30183
22697,30119
22708,30471
22718,30823
22728,31287
22738,30919
22749,30791
22759,31111
22770,30999
22780,31031
22790,31127
22801,31047
22811,30855
22822,31143
22832,31111
22843,31063
22853,31479
22863,32455
22874,32615
22884,33944
22895,34312
22905,33720
22915,32151
22926,30903
22936,31143
22947,30743
22957,31063
22968,31207
22978,31015
22989,31719
22999,31223
23009,35800
23020,49708
23030,48267
23040,13971
23051,28422
23061,35080
23071,33368
23082,33800
23092,33960
23103,34008
23113,34504
23123,34568
23134,34984
23144,35176
23155,35720
23165,36184
23175,36520
23186,37449
23196,38297
23207,39321
23217,39961
23227,40953
23238,41402
23248,42234
23259,41642
23269,39977
23279,36216
23290,32968
23303,30375
23314,29111
23324,28999
23335,28566
23346,28695
23356,28727
23366,29031
23376,29463
23386,29399
23397,30023
23407,30055
23418,30263
23428,30455
23438,30391
23449,30487
23459,30775
23470,31063
23480,30599
23490,30727
23500,30983
23510,30695
23521,30679
23531,30935
23542,30775
23552,31047
23562,31271
23573,31063
23583,31063
23593,31239
23604,31799
23614,32471
23625,32952
23635,33992
23645,34392
23655,33912
23666,32359
23676,31063
23687,31079
23697,31335
23707,31143
23718,31447
23728,31431
23739,31559
23749,31687
23760,36937
23770,50492
23781,38249
23791,15827
23801,31383
23812,34616
23822,33800
23833,33592
23843,33816
23853,34376
23864,34536
23874,34584
23885,35080
23895,35624
23905,35576
23916,36120
23926,36712
23937,37321
23947,38201
23957,39113
23968,39897
23978,40265
23989,41178
23999,41354
24009,41546
24020,39481
24030,35880
24041,33032
24051,30663
24062,29719
24072,29079
24083,29191
24093,29047
24103,29223
24114,29191
24124,29351
24135,29495
24145,29991
24156,30663
24166,29927
24177,30151
24190,30391
24201,30407
24211,30471
24221,30231
24232,30535
24242,30807
24253,30471
24263,30567
24274,30887
24284,30615
24294,30679
24305,30919
24315,31463
24326,31687
24336,32343
24346,33448
24357,33944
24367,33464
24378,32776
24388,30935
24398,30631
24408,30887
24419,30631
24429,31079
24440,31127
24450,31063
24460,31399
24471,34440
24481,47291
24492,47115
24502,14179
24513,27670
24523,33672
24534,33480
24544,33752
24555,33784
24565,33944
24575,33992
24586,34584
24596,34392
24607,35496
24617,35352
24628,35976
24638,36680
24649,37513
24659,38137
24669,39337
24680,39689
24690,40569
24701,41114
24711,41690
24722,41290
24732,39817
24743,35688
24753,32968
24763,30231
24774,29591
24784,28759
24795,28823
24805,28967
24815,29127
24826,28518
24836,29527
24847,29079
24857,29911
24867,30135
24878,30311
24888,30951
24899,30439
24909,30647
24920,30679
24930,30439
24941,30791
24951,30983
24961,30679
24972,30631
24982,31127
24993,32327
25003,32455
25014,33512
25024,33944
25035,32808
25045,30567
25055,30295
25066,30471
25079,30279
25090,30855
25100,30615
25111,31111
25122,30279
25132,33752
25143,47771
25153,49996
25163,13075
25174,24565
25184,34024
25195,33272
25205,33624
25215,33256
25226,34264
25236,33864
25247,34760
25257,34328
25267,34920
25278,35912
25288,36008
25299,36472
25309,37657
25319,38281
25329,39225
25340,40953
25350,40970
25360,42202
25370,42250
25380,42666
25391,39849
25401,36408
25412,33096
25422,31047
25433,29319
25443,28775
25454,28807
25464,29063
25474,28502
25485,28903
25495,28887
25506,28999
25516,29383
25526,30023
25537,30375
25548,29863
25558,30631
25568,30471
25579,30743
25589,30087
25600,31031
25610,30983
25620,31383
25631,31671
25641,32824
25651,32936
25661,33704
25672,32263
25682,30951
25693,29367
25703,29911
25714,30247
25724,30695
25734,29959
25745,30887
25755,30727
25766,31927
25776,40233
25787,53421
25797,33112
25808,13011
25818,32776
25828,33800
25839,33368
25849,33352
25859,33880
25870,34408
25880,33992
25891,35016
25901,34568
25912,35656
25922,36200
25932,36408
25943,37353
25953,38537
25963,38873
26004,42666
26015,42586
26025,41386
26036,37705
26046,34200
26057,31255
26067,29191
26077,29367
26088,29207
26099,28310
26109,29607
26120,28951
26130,28855
26141,29335
26151,29527
26161,30055
26172,29991
26182,29911
26193,31207
26203,30727
26214,31111
26224,31159
26235,30727
26245,30855
26255,31719
26266,32167
26276,33032
26287,33752
26297,33960
26307,32391
26318,31351
26328,30119
26339,30551
26349,29991
26359,30839
26370,30471
26380,30919
26391,31191
26401,30663
26411,37609
26422,50796
26432,43610
26443,11490
26453,29575
26463,34248
26474,33288
26484,33848
26495,33080
26505,34056
26515,34024
26525,34376
26536,34760
26546,35656
26557,35912
26567,36152
26577,36808
26588,37721
26598,38745
26609,39833
26619,40713
26629,41306
26640,41770
26650,42186
26661,41258
26671,38217
26681,35224
26691,32087
26701,30535
26712,29111
26722,29031
26733,28502
26743,29079
26754,28967
26764,28967
26775,29719
26785,29671
26795,30103
26806,30695
26816,30103
26826,30503
26837,30519
26847,30615
26858,30855
26868,30743
26878,30855
26892,30647
26902,30743
26913,31063
26924,30631
26934,30935
26945,31159
26955,30967
26966,31255
26976,31319
26986,31479
26997,32279
27007,32567
27018,33288
27028,34712
27038,34488
27049,33384
27059,32359
27070,31271
27080,31511
27090,31639
27101,31527
27111,31703
27122,31799
27132,31703
27142,32343
27153,41754
27163,54077
27174,30055
27184,17604
27194,34200
27205,34392
27215,33624
27226,33752
27236,33864
27246,34200
27257,34632
27267,34920
27278,35016
27288,35656
27298,35848
27309,36536
27319,37129
27330,37945
27340,38985
27351,39753
27361,40793
27372,41146
27382,41754
27392,42250
27402,41690
27412,38729
27423,35208
27433,32215
27444,30439
27454,29415
27465,29239
27475,28807
27486,28727
27496,29159
27506,29223
27517,29911
27527,29751
27538,30087
27548,30295
27559,30487
27569,30791
27580,30999
27590,30791
27600,31207
27611,31271
27621,30807
27632,31143
27642,31383
27653,31415
27663,30935
27674,31111
27684,31095
27694,31367
27705,31287
27715,32263
27726,32727
27736,33816
27746,34536
27757,33848
27768,32808
27781,30967
27791,30871
27801,30935
27811,31239
27822,31031
27832,31207
27843,31303
27853,31239
27864,36568
27874,50220
27885,40281
27895,14739
27906,31063
27916,34072
27926,33496
27936,33768
27946,33992
27957,34264
27967,34056
27977,34600
27987,34712
27998,35176
28008,35736
28019,35960
28029,36664
28039,37257
28050,38041
28060,39193
28071,40233
28081,40953
28091,41642
28102,41642
28112,41594
28123,39977
28133,36280
28144,33016
28154,31271
28164,29623
28175,29383
28185,29127
28196,28743
28206,29063
28217,29271
28227,29463
28237,29831
28247,29831
28257,30135
28268,30359
28278,30647
28289,30615
28299,31127
28310,30775
28320,30967
28331,30759
28341,30759
28351,31063
28362,31079
28372,30935
28383,31207
28393,31127
28404,31463
28414,32231
28425,32583
28435,33688
28445,34120
28456,33704
28466,31847
28477,30631
28487,30647
28497,31415
28508,31287
28518,31095
28529,31047
28539,31335
28549,31287
28560,35928
28570,49500
28581,43322
28591,15075
28602,29831
28612,34328
28623,33080
28633,33272
28643,33688
28654,34152
28667,34696
28678,34536
28688,35160
28699,35784
28710,36024
28720,36024
28731,37033
28741,38185
28751,38841
28762,39513
28772,40713
28783,40745
28793,41482
28804,41914
28814,40905
28825,37289
28835,34360
28845,31799
28856,30007
28866,29255
28877,28759
28887,29079
28897,28502
28908,29703
28919,29815
28929,29143
28939,30215
28950,29783
28960,30551
28971,30375
28981,30839
28991,30871
29002,30871
29012,30743
29022,30519
29033,30631
29043,30311
29053,30583
29064,30743
29074,32087
29085,32583
29095,33368
29105,33512
29116,32359
29126,30679
29136,29927
29146,30087
29156,29783
29167,29879
29177,30807
29188,30679
29198,30871
29208,30967
29219,38281
29229,51212
29240,36280
29250,13123
29260,31079
29271,33352
29281,32872
29292,32808
29302,33720
29312,33432
29323,33768
29333,33960
29344,35032
29354,34648
29364,35656
29375,36072
29385,37017
29396,37673
29406,39193
29416,39737
29427,40505
29437,42138
29448,41674
29458,42170
29468,41178
29479,37785
29489,34360
29500,31975
29510,30247
29520,29015
29531,28695
29542,28695
29552,28342
29597,29575
29607,29351
29618,30471
29628,29959
29639,30871
29649,30279
29660,30343
29670,30871
29680,30599
29691,30951
29701,31527
29712,30615
29722,32535
29732,33576
29743,33000
29753,32776
29764,31543
29774,29863
29785,30039
29795,30359
29806,30551
29816,29767
29826,30855
29836,30519
29846,31431
29857,36296
29867,49708
29878,46507
29888,10754
29899,27846
29909,33608
29920,33032
29930,33544
29940,33528
29951,33400
29961,34104
29972,34568
29982,34984
29992,34952
30003,35096
30013,36568
30024,36921
30034,37625
30044,38825
30055,39945
30065,40986
30076,41274
30086,41818
30097,41818
30107,41498
30118,38281
30128,34264
30138,32407
30149,29447
30159,29591
30170,28022
30180,28566
30191,28518
30201,28614
30212,29095
30222,28983
30232,29095
30243,29191
30253,30391
30264,29575
30274,30807
30285,30007
30295,31031
30305,30119
30316,30327
30326,31367
30336,31895
30347,31879
30357,33896
30368,33752
30378,32519
30388,31079
30399,29639
30410,29879
30420,30119
30430,29607
30441,30487
30451,30183
30462,30615
30475,31399
30486,40409
30496,52140
30507,35368
30517,12883
30527,31671
30538,33464
30548,33384
30559,32872
30569,33384
30580,33560
30590,33704
30600,34744
30611,34456
30621,35352
30632,36264
30642,36008
30653,36889
30663,38169
30674,39113
30684,39609
30694,41338
30705,41530
30715,42586
30725,41738
30735,40793
30746,36680
30756,33352
30767,30919
30777,29863
30787,28807
30798,28855
30808,28871
30819,28662
30829,29159
30839,29239
30850,29703
30860,29655
30871,30151
30881,29959
30892,31063
30902,30807
30912,31271
30923,31207
30933,30919
30944,31479
30954,31223
30965,30951
30975,31783
30986,32343
30996,33160
31006,34232
31017,33944
31027,33240
31037,31799
31048,30727
31058,30471
31068,30647
31079,31175
31089,31111
31100,31319
31110,31783
31120,30951
31131,36568
31142,50332
31152,47899
31162,12339
31173,29399
31183,35208
31194,33640
31204,33832
31214,33768
31225,34536
31235,34648
31245,34648
31255,34728
31266,35288
31276,35464
31287,36056
31297,36792
31308,37657
31318,38537
31328,40153
31339,40777
31349,40970
31362,42186
31372,42346
31382,41146
31392,38441
31403,34520
31413,31815
31424,30391
31434,29015
31445,28550
31455,28646
31466,28679
31476,28791
31487,29111
31497,29655
31507,29575
31518,30311
31528,30087
31539,30615
31549,30487
31559,30679
31570,30887
31580,30727
31591,30775
31601,30823
31611,30871
31621,31079
31631,30919
31642,31127
31652,31143
31662,31111
31673,31111
31683,31175
31694,32391
31704,32727
31715,34136
31725,34600
31735,34024
31746,32343
31756,31031
31766,30999
31776,31063
31787,31127
31797,31111
31808,31383
31818,31463
31828,31463
31839,34216
31849,46619
31860,50924
31870,16580
31880,25990
31891,34936
31901,33480
31912,33752
31922,33736
31932,33944
31942,34328
31952,34760
31963,34776
31973,35080
31984,35752
31994,35976
32005,36712
32015,37337
32026,38025
32036,39049
32046,40009
32057,40457
32067,41130
32077,41786
32087,41802
32098,40601
32108,36889
32119,33768
32129,31255
32140,29639
32150,28646
32160,28518
32171,28550
32181,29031
32192,29127
32202,29207
32213,29623
32223,29959
32233,30103
32246,30215
32256,30215
32266,30663
32277,30695
32287,30567
32298,30695
32308,30487
32319,30519
32329,30903
32339,31063
32350,30663
32360,30951
32371,31047
32381,31799
32392,32984
32402,33432
32412,34088
32422,33576
32432,32231
32443,30919
32453,30567
32464,30871
32474,30679
32485,30679
32495,30919
32506,30727
32516,31015
32526,34392
32537,47307
32547,46619
32558,14995
32568,27862
32578,34408
32589,33352
32600,33720
32610,33560
32620,34008
32631,34072
32641,34040
32652,34504
32662,35160
32672,35496
32683,36136
32693,36520
32703,37145
32714,37961
32724,39145
32734,39625
32745,40745
32755,41418
32766,41386
32776,41674
32786,39145
32797,35240
32808,32808
32818,30567
32828,28967
32839,28679
32849,28679
32860,28695
32870,29063
32880,29255
32891,29863
32901,29767
32911,29863
32921,30439
32932,29879
32942,30151
32953,30615
32963,30727
32973,30567
32984,30983
32994,30663
33005,30423
33015,31063
33025,31031
33035,31015
33045,31959
33056,33096
33066,33336
33077,33880
33087,32439
33097,30791
33108,30359
33119,30695
33129,30359
33169,31207
33180,31959
33191,41322
33201,52780
33211,25302
33222,17252
33232,32567
33243,33544
33254,33816
33264,33256
33274,33592
33285,35000
33295,34344
33306,34664
33316,35608
33326,35256
33337,35864
33347,36840
33357,38025
33367,37865
33378,38873
33388,40729
33399,40809
33409,41626
33420,41946
33430,41994
33440,40617
33451,36824
33462,33832
33472,30919
33482,29735
33493,28695
33503,28486
33514,28759
33524,29159
33534,28486
33545,28743
33555,28919
33565,29575
33575,29703
33586,29959
33596,30135
33607,30023
33617,30567
33627,30919
33637,30807
33647,30279
33658,30647
33668,30807
33679,31767
33689,32039
33700,34264
33710,32936
33721,32231
33731,30519
33741,29847
33752,30775
33762,30007
33772,30423
33783,30487
33793,30135
33803,30855
33814,31031
33824,38217
33835,52124
33845,36360
33855,12707
33866,30759
33876,33528
33887,33048
33897,33160
33907,33304
33918,33768
33928,34232
33939,34360
33949,35384
33959,35560
33970,35448
33980,35720
33990,37561
34001,37657
34011,38841
34022,39385
34032,40937
34043,41002
34056,42282
34066,42058
34076,40521
34086,37161
34096,32952
34107,31111
34117,29415
34128,28214
34138,28118
34149,28134
34159,28887
34169,29015
34180,28246
34190,28951
34201,29607
34211,29751
34222,29575
34232,30183
34243,30615
34253,30631
34263,30823
34274,30055
34284,30551
34294,31431
34304,31623
34315,32327
34325,33096
34336,33464
34346,33128
34356,31399
34367,30599
34377,29623
34388,30231
34398,29911
34408,30071
34419,30999
34429,30215
34440,30871
34450,34328
34460,47307
34471,51948
34481,14771
34492,24197
34502,34568
34513,32872
34523,33480
34534,33272
34544,33896
34555,33592
34565,34328
34575,34824
34586,35112
34596,35528
34606,35928
34616,36568
34627,37385
34637,38553
34648,39609
34658,40809
34668,41306
34679,41754
34689,42522
34700,41914
34710,39129
34721,35592
34731,32311
34742,30535
34752,29527
34762,28983
34773,28679
34783,29079
34794,29015
34804,29191
34814,29799
34825,29703
34835,30055
34846,30263
34856,30375
34866,30647
34877,30439
34887,30727
34898,31175
34908,31255
34918,30999
34929,31015
34942,31319
34953,31175
34963,31623
34974,32391
34984,33544
34995,34392
35005,34312
35016,33224
35026,31655
35037,30631
35047,31127
35058,31431
35068,31031
35078,31111
35089,31159
35099,31415
35110,31703
35120,40137
35130,53341
35141,33240
35151,15011
35162,33640
35172,34120
35182,33272
35193,33592
35203,33816
35214,34024
35224,34312
35235,34824
35245,34888
35256,35272
35266,35688
35276,36440
35287,37321
35297,38169
35308,38937
35318,39945
35329,40986
35339,41562
35350,41946
35360,42810
35370,41226
35381,37529
35391,34024
35402,31367
35412,29847
35423,29447
35433,29191
35443,28534
35454,28662
35464,28887
35474,29159
35485,29847
35495,29719
35506,30231
35516,30007
35526,30535
35537,30279
35548,30359
35558,30599
35568,30599
35579,30631
35589,30823
35600,30647
35610,30983
35620,30823
35631,30903
35641,30903
35651,31559
35661,32135
35672,32679
35682,33720
35693,34120
35703,33192
35714,31671
35724,30583
35734,30807
35745,31031
35755,31111
35765,31255
35776,31511
35786,31399
35797,31303
35807,37465
35817,49500
35830,30279
35840,17892
35851,33624
35861,33848
35871,33432
35882,33624
35892,33960
35903,34104
35913,34664
35923,34920
35934,35384
35944,35608
35955,35912
35965,36184
35975,37017
35986,37673
35996,38553
36007,39465
36017,40665
36028,40953
36038,41882
36048,41914
36059,41242
36070,38121
36080,34440
36090,31703
36101,30215
36111,29255
36122,28871
36132,28999
36142,28823
36153,29367
36163,29447
36173,29479
36183,29799
36194,29959
36204,30055
36215,30439
36225,30695
36236,30631
36246,30551
36256,30487
36267,30663
36277,30887
36287,30887
36298,30727
36308,30743
36319,31015
36329,31687
36339,32231
36350,33384
36360,33688
36371,33496
36381,32199
36392,30487
36402,30407
36413,30519
36423,30535
36434,30887
36444,31287
36454,31255
36465,31175
36475,33448
36485,44314
36496,50732
36506,18260
36516,23717
36527,34360
36537,33480
36548,33608
36558,33752
36568,33864
36579,34120
36590,34744
36600,34712
36610,34888
36621,35432
36631,35912
36642,36632
36652,37433
36662,38425
36673,39273
36683,39785
36693,40649
36703,41130
36714,41994
36756,33368
36767,31143
36777,29719
36788,29223
36798,28823
36808,29383
36818,28727
36828,29271
36838,29575
36849,29911
36859,29959
36870,29991
36880,30503
36890,30343
36901,30951
36911,30343
36922,30471
36932,30759
36943,30407
36953,30663
36964,30695
36974,31239
36985,31655
36995,32231
37005,33880
37016,34024
37026,33320
37036,31831
37046,30359
37057,30775
37067,30151
37078,30615
37088,30167
37098,30647
37109,30919
37119,30887
37130,35528
37140,48395
37151,45211
37161,12178
37172,27990
37182,33800
37192,32840
37202,33592
37212,33816
37223,33848
37233,34200
37243,34056
37254,34856
37264,35496
37275,35128
37285,35768
37295,36664
37305,37673
37315,38169
37326,39257
37336,40009
37347,40617
37357,41722
37368,42010
37378,41610
37388,39769
37398,36152
37408,33080
37419,30887
37429,29655
37440,28711
37450,28759
37461,28374
37471,28855
37482,28775
37492,29143
37502,30039
37513,29015
37523,29927
37534,31143
37544,29735
37554,30535
37564,30551
37575,30951
37585,30535
37596,30231
37606,31447
37616,31575
37630,33448
37640,33576
37651,32647
37661,31031
37672,29463
37682,30231
37693,29591
37703,30039
37713,30231
37724,30423
37734,30935
37745,31127
37755,37625
37766,51340
37776,36616
37787,11090
37797,31207
37808,33832
37818,32936
37828,32776
37839,33992
37849,33560
37860,33880
37870,34632
37881,34456
37891,35864
37902,35224
37912,37305
37922,36937
37933,37721
37943,38889
37954,39689
37964,41386
37974,41418
37985,41578
37995,42202
38005,40953
38016,37145
38026,33960
38037,30663
38047,30087
38057,28775
38068,28646
38079,28518
38089,28662
38099,29015
38110,29095
38120,29719
38131,29607
38141,30023
38151,30471
38162,30359
38172,30183
38182,30983
38192,30295
38203,30631
38213,31207
38224,31575
38234,32824
38245,33544
38255,33352
38265,32551
38276,31431
38286,29799
38296,29911
38307,30151
38317,30407
38328,29591
38338,31175
38348,31079
38358,30311
38368,35224
38379,49724
38389,47035
38400,10626
38410,27446
38421,34280
38431,33176
38441,32599
38451,33832
38461,33768
38472,34264
38482,34312
38492,34408
38503,35016
38513,35496
38526,36424
38536,36712
38547,37593
38557,38953
38568,39705
38578,40617
38589,41258
38599,42506
38610,42186
38620,40970
38631,37225
38641,33384
38651,30807
38661,29735
38671,29063
38682,28887
38692,28646
38702,28502
38712,28695
38723,28743
38733,29271
38744,29527
38754,29975
38764,29991
38775,30263
38785,30871
38796,30519
38806,31303
38817,29879
38827,30663
38838,31495
38848,31383
38858,31975
38869,33320
38879,33832
38890,32808
38900,31303
38910,29591
38921,29831
38931,29927
38941,29879
38952,30327
38962,30167
38973,30599
38983,31143
38993,33928
39004,49131
39015,49516
39025,11490
39035,26438
39046,34280
39056,32455
39067,33384
39077,33048
39088,33992
39098,34024
39109,34472
39119,34408
39129,34728
39139,35800
39149,35832
39160,36568
39170,37961
39181,38697
39191,39433
39201,40953
39212,41034
39223,41658
39233,42122
39243,41706
39254,38553
39264,34904
39275,32311
39285,30151
39295,29271
39306,29383
39316,28695
39326,29079
39336,28983
39347,29591
39357,29479
39368,29735
39378,30183
39389,30535
39399,30567
39412,30759
39423,31367
39433,30983
39444,30999
39454,30983
39465,31463
39475,31079
39485,31143
39496,30919
39506,31063
39517,31319
39527,32391
39538,32792
39548,33800
39559,34584
39569,33512
39579,32279
39589,31095
39599,30615
39610,30887
39620,31047
39631,31047
39641,31463
39652,31479
39662,31223
39673,34968
39683,48347
39693,49035
39704,13203
39714,27558
39725,35368
39735,33544
39745,33576
39756,33848
39766,34280
39777,34344
39787,34536
39797,34840
39808,35416
39818,35800
39829,36456
39839,37017
39849,37609
39860,38361
39870,39641
39881,40329
39891,41002
39901,41738
39912,42346
39922,41914
39933,39593
39943,35896
39954,33000
39964,30823
39975,29559
39985,29079
39995,29207
40006,28743
40016,29319
40027,29303
40037,30119
40048,29895
40058,29975
40069,30391
40079,30599
40089,30679
40100,30375
40110,30631
40121,31143
40131,30983
40141,30759
40152,31287
40162,30871
40173,30743
40183,30951
40193,31127
40204,31239
40214,31031
40225,31687
40235,32263
40245,32808
40256,33800
40267,34584
40277,33960
40287,32455
40300,31303
40339,31511
40350,31367
40360,31751
40371,31543
40381,36024
40392,48987
40402,43578
40413,14691
40423,30503
40433,34968
40444,33672
40454,34104
40465,33960
40475,34120
40485,34328
40496,34952
40507,35112
40517,35528
40528,36296
40538,36328
40548,37417
40559,38121
40569,38537
40580,39769
40590,40329
40601,40953
40611,41706
40622,41898
40632,41610
40642,39241
40653,35528
40663,32679
40674,30791
40684,29703
40694,29607
40705,29095
40716,29191
40726,29031
40736,29287
40747,29623
40757,30407
40768,30055
40778,30391
40789,30311
40799,30647
40810,30407
40820,30455
40830,30631
40840,30439
40850,30231
40861,30407
40871,30423
40882,30583
40892,30647
40902,30407
40913,30855
40924,31063
40934,31319
40944,32407
40955,33528
40965,33944
40976,33384
40986,31831
40996,30551
41007,30375
41017,30519
41027,30887
41037,30615
41048,30951
41058,30887
41069,30951
41079,34664
41090,46859
41100,45419
41110,14611
41121,28839
41131,33816
41142,33208
41152,32872
41163,33624
41173,34136
41184,34296
41194,34216
41204,35096
41217,34920
41228,35544
41238,36040
41249,37257
41259,37577
41270,38217
41280,39513
41290,40153
41300,40473
41310,41066
41321,41322
41331,41162
41341,38601
41351,35480
41362,32647
41372,30151
41383,29159
41393,29015
41403,28759
41413,29063
41423,29031
41434,29367
41445,29431
41455,29735
41465,29735
41476,29751
41486,30039
41497,30215
41507,30407
41517,30391
41528,30423
41538,30087
41548,30167
41558,30327
41569,30375
41579,30087
41590,30679
41600,31335
41610,31687
41620,33000
41630,33528
41641,33096
41651,31575
41662,30023
41672,30503
41683,30183
41693,30359
41704,30455
41714,30663
41724,30535
41735,30391
41745,34344
41755,47755
41766,47307
41776,12675
41786,25414
41797,33928
41807,33032
41818,33544
41828,33224
41838,33768
41849,34152
41860,34568
41870,34520
41880,35032
41891,35640
41901,36072
41912,36953
41922,37321
41932,38329
41943,39177
41953,40505
41963,40505
41973,41786
41984,41754
41994,41178
42005,39001
42015,35496
42026,31943
42036,30023
42046,29671
42057,28935
42067,28054
42077,28743
42088,28614
42098,28743
42111,29127
42122,29959
42133,29719
42143,29495
42153,29959
42164,30263
42174,30599
42184,30279
42195,30455
42205,30727
42216,30375
42226,31415
42237,31447
42247,33128
42257,33384
42268,33112
42278,32231
42289,30055
42299,29479
42309,30375
42320,29975
42330,30103
42341,30119
42351,31015
42361,30247
42372,33896
42383,47755
42393,50140
42403,13075
42414,24421
42424,34280
42435,33192
42445,32583
42455,33752
42466,33816
42476,34024
42486,34376
42496,34536
42507,35288
42517,35992
42528,36216
42538,36856
42549,37385
42559,38121
42569,39369
42580,40521
42590,40953
42600,41994
42611,42394
42621,42186
42632,38361
42642,35064
42652,32439
42662,30663
42672,29111
42683,28566
42693,28310
42704,29255
42714,28198
42729,29607
42740,28502
42750,29991
42761,29991
42771,30055
42781,30263
42792,30247
42802,30871
42812,30855
42822,31063
42833,30791
42843,32007
42854,32471
42864,32824
42874,34312
42885,32663
42895,32583
42905,30471
42916,29671
42926,30535
42936,30135
42947,30087
42957,30615
42968,30343
42978,30599
42988,33272
43002,50524
43013,45483
43023,10818
43034,28935
43044,34232
43055,32263
43065,33256
43075,33688
43086,33208
43096,33720
43107,34568
43117,34472
43127,35144
43138,35816
43148,35912
43159,36840
43169,37721
43180,39177
43190,39577
43200,40521
43211,41498
43221,41466
43231,41834
43242,40857
43252,37833
43263,33992
43273,31127
43283,29639
43293,28935
43303,28679
43314,28438
43324,28310
43334,28646
43345,29207
43355,29367
43366,29767
43376,29815
43386,30455
43396,30615
43406,30791
43417,30999
43427,30983
43438,31159
43448,31431
43459,31319
43469,31031
43480,31495
43490,32295
43500,32599
43511,33992
43521,34152
43531,33864
43541,32263
43551,30951
43562,30663
43572,30951
43583,30839
43593,30871
43603,31383
43614,31143
43624,31175
43634,33368
43644,45211
43655,53357
43665,17764
43676,22149
43686,34792
43697,33368
43707,33496
43717,33384
43728,33768
43738,33928
43749,34584
43759,34888
43770,35064
43780,35656
43791,36136
43801,36712
43811,37465
43822,38457
43832,39209
43842,40281
43852,40953
43863,41866
43873,42202
43886,42090
43924,31143
43935,29767
43945,29415
43956,28614
43967,28967
43977,28935
43988,29383
43998,29735
44008,29703
44019,29959
44029,30135
44040,30311
44050,30375
44060,30311
44070,30471
44081,30487
44091,30519
44102,30727
44112,30551
44122,30999
44133,30567
44143,31175
44154,30743
44164,30887
44175,30903
44185,30903
44196,31335
44206,31143
44216,31415
44227,31767
44237,32215
44248,33032
44258,33320
44268,34152
44279,34184
44290,33352
44300,31639
44310,31031
44321,31207
44331,31431
44342,31575
44352,31527
44362,31527
44373,31671
44383,33288
44393,43562
44403,52044
44414,20917
44424,23845
44435,35112
44445,33368
44456,33720
44466,33736
44476,34008
44487,34120
44497,34376
44508,34760
44518,35352
44529,35912
44539,36008
44550,36889
44560,37177
44570,37865
44581,38841
44591,39785
44601,40537
44612,40953
44622,41690
44632,42010
44643,40953
44653,37881
44664,34808
44674,31895
44684,30295
44695,29415
44705,29143
44715,29063
44725,29063
44736,29191
44746,29367
44757,30039
44767,29767
44777,30023
44788,30247
44801,30279
44811,30487
44822,30375
44832,30743
44843,30407
44853,30775
44864,30679
44874,30903
44884,30407
44895,30519
44905,30919
44915,30535
44925,30935
44935,31271
44945,32087
44956,32727
44966,33576
44977,34376
44987,32711
44997,31015
45008,30519
45018,30695
45029,30983
45039,30855
45049,30791
45060,31111
45070,31063
45081,32535
45091,42426
45101,51148
45112,18500
45123,22629
45133,33816
45143,32952
45154,32904
45164,33352
45175,33432
45185,34312
45195,34136
45206,34264
45216,35128
45226,35848
45236,35640
45247,36760
45257,37289
45268,38409
45278,39001
45289,39705
45299,40713
45309,40986
45320,41482
45330,41498
45340,40361
45350,37241
45360,33928
45371,31303
45381,30103
45392,28999
45402,28823
45412,28951
45423,28855
45433,29527
45444,28695
45454,29703
45464,29847
45475,29927
45485,30151
45496,30055
45506,30375
45516,30183
45527,30279
45537,30535
45548,30439
45558,30663
45568,30343
45579,30775
45589,31303
45600,32743
45610,33480
45620,33240
45631,32263
45642,31015
45652,30007
45662,29927
45673,30567
45686,30647
45697,30295
45707,30887
45718,30759
45728,34472
45739,48475
45749,47691
45760,12098
45770,26678
45781,34008
45791,33272
45802,33272
45812,33656
45822,33608
45833,33960
45843,34248
45853,34856
45863,34968
45874,35784
45884,35976
45895,36776
45905,37273
45915,38633
45926,39657
45936,40281
45947,41226
45957,41450
45968,42186
45978,41354
45989,38809
45999,35016
46010,32615
46020,30615
46030,29111
46041,29159
46051,28967
46061,28470
46071,28823
46082,29399
46092,29351
46103,29911
46113,30439
46123,30087
46134,30231
46144,30615
46155,31143
46165,30263
46176,30887
46186,30807
46197,30743
46207,31655
46217,32247
46228,32856
46238,33432
46249,34152
46259,32455
46270,31255
46280,29927
46291,30375
46301,30743
46311,30679
46322,30631
46332,30919
46343,30471
46353,32776
46364,43210
46374,53901
46385,21477
46395,18532
46406,34088
46416,33480
46426,33368
46437,33480
46447,33816
46458,34264
46468,34120
46479,34616
46489,35576
46500,34952
46510,36072
46520,36584
46531,37033
46541,38521
46552,39817
46562,40281
46576,41290
46586,41882
46596,42170
46606,41050
46617,38793
46627,35112
46638,31799
46648,30167
46658,29383
46668,28518
46679,28326
46689,28246
46700,28582
46710,29175
46720,29223
46731,29191
46741,29895
46752,29911
46762,30311
46772,30567
46783,30471
46794,30983
46804,30487
46814,30743
46825,30807
46835,31175
46846,31863
46856,32888
46866,34200
46877,33640
46887,32519
46897,31095
46907,29911
46918,29831
46928,30423
46939,30263
46949,30391
46960,30871
46970,31159
46980,32279
46991,41114
47001,53309
47012,28502
47022,15571
47033,33352
47043,33816
47054,33592
47064,33976
47074,33720
47085,33976
47095,34408
47105,35112
47115,34840
47126,35480
47136,36104
47147,36648
47157,37705
47167,38313
47178,39113
47188,39849
47199,41114
47209,41482
47219,42042
47230,42874
47240,40665
47251,37305
47261,33704
47272,31143
47282,29799
47292,28855
47303,28983
47313,28951
47324,29031
47334,29303
47345,29191
47355,29751
47365,30007
47375,30375
47385,29991
47396,30823
47406,30695
47416,30615
47427,30775
47437,30695
47448,30775
47458,30583
47498,31383
47509,32391
47519,33480
47530,33848
47540,33720
47550,32199
47561,30295
47571,30663
47581,30343
47592,30167
47602,30391
47613,30567
47623,30679
47633,30663
47644,33944
47654,45867
47664,52140
47674,15875
47685,22949
47695,35096
47706,33064
47716,33272
47726,33592
47737,33768
47747,34072
47757,34360
47767,34408
47778,35032
47788,35496
47799,35880
47809,36680
47820,37337
47830,38313
47840,39465
47851,40489
47862,40729
47872,41514
47882,42170
47893,41770
47903,39609
47914,36184
47924,33304
47934,31271
47945,29767
47955,28903
47965,28727
47975,28727
47986,28646
47996,29111
48007,29367
48017,29463
48028,30023
48038,30103
48048,30727
48059,30119
48069,30311
48079,30631
48089,30807
48100,30727
48110,30711
48121,30903
48131,30663
48141,30695
48152,30631
48162,30743
48172,31031
48182,30647
48193,31495
48203,31959
48214,32487
48224,34072
48234,34120
48244,33768
48254,32199
48265,31271
48275,31015
48286,30919
48296,31207
48307,31015
48317,31239
48328,31383
48338,31111
48348,35384
48359,48715
48369,46555
48382,15379
48393,32968
48403,34584
48413,33480
48424,33944
48434,34248
48445,34216
48455,34744
48465,34776
48476,35000
48487,35480
48497,35992
48508,36568
48518,37145
48528,37689
48538,38489
48548,39529
48559,40649
48569,40793
48580,41386
48590,41770
48601,41162
48611,38585
48622,35096
48632,32535
48642,30375
48653,29543
48663,28839
48674,28903
48684,28935
48695,29127
48705,29367
48716,29735
48726,29783
48736,30151
48747,30039
48757,30263
48768,30455
48778,30599
48789,30887
48799,30615
48810,30631
48820,30791
48830,30727
48840,30823
48850,30871
48861,30743
48871,31319
48882,32119
48892,32663
48902,33832
48913,33896
48923,32888
48934,31079
48944,30759
48954,31031
48965,30615
48975,31031
48986,30983
48996,31159
49007,31399
49017,32215
49028,40761
49038,51132
49048,23781
49059,20244
49069,33336
49080,33496
49090,33352
49101,33688
49111,33720
49122,34072
49132,34328
49142,34536
49153,35032
49163,35240
49174,35688
49184,36152
49194,37161
49205,37769
49216,38873
49226,39673
49236,40409
49247,40953
49257,41354
49270,41578
49281,39753
49292,35992
49302,32936
49313,30743
49323,29847
49334,29079
49344,28903
49355,28903
49365,29159
49376,29687
49386,29479
49396,29655
49407,29991
49417,29959
49427,30439
49437,30183
49448,30359
49458,30519
49469,30807
49479,30647
49489,30663
49500,31143
49510,31847
49521,32920
49531,33448
49541,32968
49552,31799
49562,30183
49573,30151
49583,29991
49593,30343
49604,30423
49614,30503
49625,30503
49635,30615
49645,34104
49656,46523
49666,45307
49677,14307
49687,27494
49697,33944
49708,32952
49718,33128
49729,33384
49739,33592
49750,33880
49760,34216
49771,34520
49781,35224
49791,35368
49802,36136
49812,36488
49823,37097
49833,37817
49843,39001
49854,39865
49864,40361
49875,40953
49885,41674
49895,40953
49906,38825
49916,35384
49927,32327
49937,30903
49947,29399
49958,29111
49968,28903
49979,28935
49989,29575
49999,29287
50010,29991
50020,30039
50031,30039
50041,30423
50052,30679
50062,30215
50073,30663
50083,31287
50093,31303
50104,31687
50114,32327
50125,33240
50135,33896
50146,32904
50159,31111
50170,30055
50180,30055
50191,30215
50201,30023
50211,30391
50222,30487
50232,30503
50243,31127
50253,38809
50263,51388
50274,28951
50284,18052
50294,32103
50305,33512
50315,32904
50326,33224
50336,33864
50346,33800
50357,34008
50367,34376
50377,34664
50387,34840
50397,35544
50408,36200
50418,36712
50429,37641
50439,38489
50449,39065
50460,39913
50471,40617
50481,40953
50491,41066
50502,39817
50512,36953
50523,33464
50533,31207
50543,29783
50554,29223
50564,29127
50574,28662
50584,28999
50595,29223
50605,29543
50616,29271
50626,29735
50636,30343
50646,30263
50656,30087
50667,30487
50677,30359
50687,30679
50698,31623
50708,31623
50719,33480
50729,33512
50739,32567
50749,31527
50759,29719
50770,30055
50780,29911
50790,29655
50801,29543
50811,30119
50822,30423
50832,29623
50842,32808
50853,45547
50863,49772
50874,14499
50884,24565
50894,33448
50905,32423
50915,32936
50926,33032
50936,33336
50946,33640
50957,33752
50967,34296
50978,35128
50988,34408
50998,35592
51009,36328
51019,37417
51030,38073
51040,38681
51084,41162
51094,40937
51105,36856
51116,33720
51126,31543
51137,29495
51147,28438
51157,28775
51167,28438
51177,29207
51188,28695
51198,29383
51209,29063
51219,29895
51230,29831
51240,30135
51251,30439
51261,30247
51271,30791
51282,30439
51292,31223
51303,31447
51313,32391
51324,33688
51334,33544
51345,32824
51355,31111
51365,30023
51376,30055
51386,29831
51397,29815
51407,30455
51417,29927
51427,30519
51437,30391
51448,34600
51458,49308
51468,49436
51479,11746
51489,26534
51500,34408
51510,32856
51521,33048
51531,32952
51542,33640
51552,34008
51563,34584
51573,33944
51583,34680
51594,35544
51604,35944
51615,37017
51625,37657
51636,39225
51646,39465
51656,41178
51666,40953
51676,41530
51687,42474
51697,41178
51708,37897
51718,34152
51728,31879
51739,29607
51750,29127
51760,28807
51770,28326
51781,28486
51791,28839
51802,28919
51812,29639
51822,29127
51833,30295
51843,29799
51853,30503
51863,30407
51874,30487
51884,30791
51895,30551
51905,30935
51915,32087
51926,32439
51936,33752
51947,33320
51960,31623
51971,29895
51981,30007
51992,29527
52002,29639
52013,30519
52023,29879
52033,30247
52043,30935
52054,32487
52064,45259
52075,52620
52085,16820
52096,21829
52106,34440
52116,33096
52127,33080
52137,33240
52148,33544
52158,33960
52168,34280
52179,34472
52189,34568
52200,35224
52210,36040
52220,36392
52231,37385
52241,37961
52252,39753
52262,40089
52273,40777
52283,41626
52294,41914
52304,41386
52315,39001
52325,34344
52335,32199
52346,29671
52356,29287
52367,28166
52377,28823
52388,28454
52398,29079
52409,28775
52419,29863
52429,29095
52440,30103
52450,29879
52461,29975
52471,30359
52482,30503
52492,30503
52503,30967
52513,30663
52523,30823
52534,30791
52544,31879
52555,32199
52565,33544
52576,34072
52586,33128
52597,31911
52607,30119
52617,29943
52628,30087
52638,30247
52649,30279
52659,30087
52669,30919
52680,30727
52690,33176
52701,46699
52711,52236
52721,14275
52732,23781
52742,34728
52753,33192
52763,32856
52773,33336
52784,34136
52794,33848
52805,34104
52815,34664
52825,34712
52836,35464
52846,36040
52859,36840
52870,38169
52881,38617
52891,39225
52901,40489
52912,40953
52922,41466
52932,42042
52943,40873
52953,37945
52964,34616
52974,31335
52984,29959
52995,28839
53006,28358
53016,28454
53026,29111
53037,28550
53047,29111
53058,29495
53068,29751
53078,30007
53089,30391
53099,30695
53109,30631
53119,30487
53130,30935
53140,30503
53151,30759
53161,30759
53171,30999
53181,31015
53191,30631
53202,30903
53212,31191
53223,31191
53233,31687
53244,32183
53254,32952
53265,34056
53275,33864
53285,33128
53296,31111
53306,30743
53316,30887
53327,30535
53337,30615
53348,30775
53358,31495
53368,31111
53378,31575
53388,39161
53399,52108
53409,32679
53420,14419
53430,33176
53441,34312
53451,33512
53461,33640
53471,34136
53481,34488
53492,34248
53502,34904
53513,35240
53523,35816
53534,36120
53544,36584
53555,37289
53565,38249
53575,39065
53586,40137
53596,40409
53607,41130
53617,41802
53627,41786
53638,40889
53648,37785
53659,34600
53669,31559
53679,29863
53690,29111
53700,28759
53711,28679
53721,28871
53732,29319
53745,29255
53756,29767
53766,29751
53777,30279
53787,30183
53797,30407
53808,30823
53818,30935
53829,30903
53840,30775
53850,30519
53860,31127
53870,31031
53880,31159
53891,30855
53901,30807
53912,30695
53922,30775
53933,31495
53943,31431
53954,31127
53964,31415
53974,31751
53985,31751
53995,32599
54006,32856
54016,34232
54026,34696
54037,34456
54047,32872
54058,31623
54068,31527
54078,31703
54089,31383
54099,32039
54110,31703
54120,31991
54130,31575
54141,36696
54152,50796
54162,41434
54172,14643
54183,31943
54193,34872
54204,33576
54214,33896
54224,33992
54234,34248
54245,34888
54255,34840
54265,35096
54276,35752
54286,35816
54297,36840
54307,37049
54317,38025
54327,38489
54337,39561
54348,39913
54358,40665
54369,41434
54379,41754
54390,41530
54400,39497
54411,35896
54421,33080
54431,30903
54442,29607
54452,29223
54462,29143
54472,28951
54483,28951
54493,29111
54504,29367
54514,29783
54524,29975
54535,30039
54545,30183
54556,30247
54566,30359
54576,30391
54587,30711
54597,30887
54608,30695
54618,31079
54631,30775
54671,30935
54682,31079
54693,31303
54703,32039
54714,32776
54724,34152
54734,34488
54745,33992
54755,32103
54766,30951
54776,31079
54787,31143
54797,30983
54807,30935
54818,31255
54828,31207
54839,31159
54849,35384
54859,48203
54870,41370
54880,15475
54891,30583
54901,34520
54912,33496
54922,33608
54933,33944
54943,33944
54953,34232
54964,35000
54974,35144
54985,35496
54995,35896
55006,36328
55016,36969
55027,37801
55037,38953
55047,39321
55058,39945
55068,40953
55079,41018
55089,42026
55099,40953
55110,38537
55120,35368
55131,32423
55141,30647
55151,29399
55162,28919
55172,28871
55183,28903
55193,29511
55203,29415
55214,29703
55224,29639
55234,30039
55244,30215
55254,30519
55265,30295
55275,30807
55286,30679
55296,30455
55306,30807
55317,30759
55327,30695
55337,30775
55347,30503
55358,30663
55368,30823
55379,30647
55389,30631
55399,30807
55410,30919
55420,31639
55430,32295
55440,32695
55451,34136
55461,34328
55472,33800
55482,32279
55493,31239
55503,31463
55513,31287
55524,31367
55534,31287
55547,31543
55558,31879
55568,32663
55579,41514
55589,51212
55600,22117
55610,22293
55620,33848
55630,34248
55640,33992
55650,34104
55661,34200
55671,34632
55682,34872
55692,35224
55702,35304
55712,35736
55722,35944
55733,36520
55743,37129
55753,37753
55763,38857
55774,39561
55784,40377
55795,40649
55805,41034
55815,41482
55826,41130
55836,38681
55846,35880
55856,33048
55867,31031
55877,29559
55888,29335
55898,29319
55908,28935
55918,29351
55928,29271
55939,29495
55949,29799
55959,30039
55969,30439
55980,30775
55990,30519
56001,30439
56011,30487
56021,30855
56032,30663
56042,30551
56052,30983
56062,30759
56073,30647
56083,30615
56094,30919
56104,31815
56114,32055
56125,33336
56135,33832
56146,33432
56156,32055
56167,30487
56177,30199
56188,30631
56198,30295
56208,30471
56219,30951
56229,30775
56240,30759
56250,34968
56261,47451
56271,44586
56282,12643
56292,27958
56302,34024
56313,33240
56323,33080
56334,33448
56344,33688
56355,34056
56365,34472
56376,34840
56386,35256
56396,35272
56407,36664
56417,36969
56428,37257
56441,38633
56452,39481
56463,40633
56473,40986
56484,41946
56494,41450
56504,40713
56515,37497
56525,33752
56536,30871
56546,30295
56556,28871
56567,28550
56578,28486
56588,28887
56598,28951
56609,28646
56619,29463
56630,29383
56640,29687
56651,30151
56661,30423
56672,30375
56682,30503
56693,30487
56703,30263
56713,30183
56724,30743
56734,30423
56745,30343
56755,31671
56765,31527
56776,33240
56787,33736
56797,32968
56807,32023
56818,30599
56828,29543
56839,30743
56849,29735
56859,30343
56870,30359
56880,30391
56890,30119
56900,34648
56911,47643
56921,49115
56932,11810
56942,25110
56952,33864
56963,33016
56973,34104
56984,33160
56994,34056
57004,34136
57015,34216
57025,35368
57036,34856
57046,35816
57056,36584
57067,36376
57077,37801
57088,38537
57098,39785
57109,40537
57119,41546
57130,41258
57140,42010
57150,41770
57161,39017
57171,34712
57182,31927
57192,29895
57202,29479
57213,28903
57223,28486
57234,28695
57244,28662
57254,29399
57265,29671
57275,29719
57286,29783
57296,30295
57307,31175
57317,29735
57330,30119
57340,30903
57351,30951
57361,30999
57372,31015
57382,31895
57392,33128
57403,33384
57413,33720
57424,32840
57434,31511
57445,30743
57455,29335
57465,30519
57476,30471
57486,30551
57497,30871
57507,30503
57518,30551
57528,37529
57539,51724
57549,38761
57559,11954
57570,31255
57580,34264
57591,33016
57601,33640
57612,33320
57622,33896
57633,34136
57643,34664
57653,35032
57664,35256
57674,35640
57685,36520
57695,37385
57706,38313
57716,39113
57727,40169
57737,41162
57747,41050
57757,41994
57767,42394
57778,40970
57788,36328
57799,33336
57809,30791
57820,29799
57830,28807
57841,28598
57851,28887
57861,28775
57872,29079
57882,29687
57893,29271
57903,30119
57913,29543
57924,30183
57934,30391
57945,30167
57955,30919
57965,30919
57976,30887
57986,30935
57997,30807
58007,30823
58017,31959
58028,31655
58039,33000
58049,33864
58059,33752
58070,32327
58080,30647
58091,29847
58101,30007
58111,30295
58122,30055
58132,30375
58142,30951
58152,31191
58163,32647
58173,42442
58184,53645
58194,23861
58204,14947
58217,34632
58258,33560
58269,34456
58279,34440
58289,34872
58300,35288
58310,35784
58321,36248
58331,37097
58342,37721
58352,38361
58362,39593
58373,40809
58384,41354
58394,41786
58404,42058
58415,41626
58425,39225
58436,35624
58446,32615
58456,30407
58467,29255
58477,28967
58487,28871
58497,28823
58507,28775
58517,29095
58528,29255
58538,29623
58549,30199
58559,30231
58569,30503
58580,30839
58590,30743
58600,30647
58610,30855
58620,30807
58631,30935
58641,30535
58652,31143
58662,30823
58672,30759
58683,30743
58694,31191
58704,31207
58714,31303
58725,32343
58735,33048
58746,34088
58756,34232
58766,33736
58777,32535
58787,30759
58797,30935
58807,31255
58818,31159
58828,31367
58839,31319
58849,31511
58860,31575
58870,35720
58880,49452
58891,46059
58901,13155
58912,29831
58922,35160
58933,33768
58943,33960
58954,34200
58964,34376
58974,34568
58985,35128
58995,35240
59005,35512
59015,36104
59026,36792
59036,37017
59047,37833
59057,38601
59067,39609
59078,40489
59088,41178
59099,41802
59109,42042
59123,41114
59133,38073
59144,34904
59154,32151
59165,30503
59175,29607
59185,28823
59195,29479
59206,28999
59216,29079
59227,29143
59237,29543
59248,29591
59258,30007
59268,30135
59279,30247
59289,30503
59300,30247
59310,30439
59320,30775
59331,30871
59341,30695
59352,30839
59362,31175
59372,30615
59383,30903
59393,30727
59404,30855
59414,31079
59424,31399
59435,31783
59445,32279
59456,33176
59466,34008
59476,34216
59487,32856
59497,31655
59508,30903
59518,31175
59529,31127
59539,31143
59550,31415
59560,31543
59571,31175
59581,33192
59591,43674
59602,51052
59612,19172
59623,24069
59633,35016
59644,33672
59654,33752
59665,34216
59675,34472
59685,34584
59696,34456
59706,34904
59717,35384
59727,35720
59737,36536
59748,36696
59758,37705
59769,38169
59779,39385
59789,39817
59800,40745
59810,41146
59821,41610
59831,41450
59842,40121
59852,36953
59863,33928
59873,31367
59883,30279
59894,29463
59904,29223
59915,29063
59925,29191
59936,29799
59946,29447
59957,29991
59967,29879
59977,30167
59988,30279
59998,30455


