Timestamp_ms,Raw_ECG
1,37673
12,37977
22,40121
33,40489
43,41178
54,40986
64,41050
74,40970
84,39897
94,37481
105,34360
115,32407
125,30791
135,30583
145,30743
155,30743
166,31271
176,31911
187,31239
197,31879
207,32135
218,32583
228,33512
239,34776
249,35000
260,33176
270,31927
280,30743
291,30199
301,30439
312,30231
322,31175
332,30407
343,30823
353,39529
364,53036
374,33224
384,12323
395,30279
405,32391
416,32920
426,33896
436,33816
447,34184
457,34968
468,35608
478,36424
488,37465
499,39065
509,41338
520,41162
559,41994
570,40841
580,38953
591,34456
601,31991
611,31447
622,30951
632,31127
643,31991
653,31575
664,31847
674,31479
685,33096
695,33832
706,35416
716,34392
726,34024
737,32327
747,30935
758,30151
768,29607
778,30087
789,29255
799,30359
810,30407
820,33416
830,49884
841,49548
851,9490
862,24053
872,32631
882,30599
892,31511
903,31959
913,31927
924,33880
934,32808
944,35080
955,34344
965,36616
976,37449
986,39017
997,40057
1007,39369
1018,38937
1028,38921
1038,38681
1049,35784
1059,32199
1070,30119
1083,28358
1093,28614
1104,28679
1114,28871
1125,28102
1135,29415
1145,29735
1156,30487
1166,32007
1177,32215
1187,32727
1197,32311
1207,30167
1218,27990
1228,28582
1239,27718
1249,28759
1260,28679
1270,28006
1280,29223
1291,34520
1301,49452
1312,46171
1322,7825
1332,25558
1343,31239
1353,30231
1364,31255
1374,32135
1384,32343
1395,31895
1405,34056
1416,33944
1426,35064
1437,36921
1447,38249
1457,38089
1468,40841
1478,39657
1489,39689
1499,39817
1509,39049
1520,35656
1530,33448
1541,30151
1551,29799
1561,29735
1572,29127
1582,30007
1593,29911
1603,31335
1613,29399
1624,30567
1634,30727
1645,30519
1655,31591
1665,32776
1676,32679
1686,34024
1697,31895
1707,29895
1717,28903
1728,28662
1738,28775
1749,29207
1759,29895
1769,29463
1780,31015
1790,44426
1801,52748
1811,16275
1821,17252
1832,31927
1842,31159
1853,31319
1863,33032
1873,31831
1884,33352
1894,34264
1905,34472
1915,35160
1925,36744
1935,36792
1945,38873
1955,39849
1966,39769
1976,40329
1987,39929
1997,40489
2007,38569
2018,35720
2028,32295
2038,30231
2052,30663
2062,29351
2073,30039
2083,30055
2094,30439
2104,29447
2115,30823
2125,30103
2135,29751
2145,30215
2156,30599
2166,31751
2177,32007
2187,32968
2198,33768
2208,31799
2218,29591
2229,29239
2239,28662
2250,29527
2260,29063
2271,29591
2281,29927
2291,31191
2302,41882
2312,51932
2323,16916
2333,15971
2343,32391
2354,31399
2364,32279
2375,32023
2385,33112
2395,33912
2406,33608
2416,35432
2427,35688
2437,36168
2447,38553
2457,39145
2468,39593
2478,40601
2489,40265
2499,40345
2509,40745
2519,39081
2529,37065
2540,32952
2550,30439
2561,29959
2571,29639
2582,30279
2592,30167
2602,30935
2613,30135
2623,30311
2634,29767
2644,30391
2654,30439
2664,31159
2675,31799
2685,33288
2696,33608
2706,32695
2717,31687
2727,28951
2737,30183
2748,28230
2758,29671
2769,29271
2779,29911
2789,29463
2800,34344
2810,49884
2821,41322
2831,9314
2841,27654
2852,31463
2862,32359
2873,32920
2883,33032
2893,33320
2904,34392
2914,34488
2925,35928
2935,36921
2945,37625
2956,39225
2966,40457
2977,40745
2987,40297
2998,40425
3008,40937
3018,40697
3032,37225
3042,34760
3053,31335
3064,30631
3074,31351
3085,29943
3095,31111
3106,31063
3116,31015
3126,30951
3137,31271
3147,30551
3158,31175
3168,31287
3178,31367
3189,32327
3199,34360
3210,34184
3220,33192
3230,30119
3241,29447
3251,29911
3262,29639
3272,28887
3282,30423
3292,29655
3303,30647
3313,40841
3324,50604
3334,21669
3345,15683
3355,31575
3365,32519
3376,31975
3386,32487
3397,34184
3407,33928
3418,35032
3428,35048
3438,36856
3449,36792
3459,38057
3470,39721
3480,40617
3490,41194
3501,41306
3511,41034
3522,40953
3532,40025
3542,36856
3553,33512
3563,31671
3574,31191
3584,30663
3594,30855
3605,30247
3615,30599
3626,31015
3636,31431
3646,30295
3657,31079
3667,30871
3678,31159
3688,32423
3698,33736
3709,34888
3719,32679
3730,30375
3740,30087
3750,29623
3761,29271
3771,29591
3782,30055
3792,30823
3802,29447
3813,36184
3823,49724
3834,35688
3844,10658
3854,29159
3865,32055
3875,32023
3886,32647
3896,33512
3906,34328
3917,33896
3927,35224
3938,35528
3948,36889
3958,38057
3969,39273
3979,40793
3990,41018
4030,40953
4040,38169
4051,34760
4061,31623
4072,31191
4082,30903
4092,30263
4103,30647
4113,31063
4124,30487
4134,30791
4144,30791
4154,30983
4164,30279
4174,30871
4185,31175
4195,31239
4206,31959
4216,34136
4226,34632
4237,33352
4247,30887
4258,30167
4268,29255
4279,29639
4289,29623
4299,29767
4310,30471
4320,30535
4331,36696
4341,49980
4351,33720
4362,11346
4372,29271
4383,32808
4393,32455
4403,32984
4414,33416
4424,34152
4435,34952
4445,34856
4455,35736
4466,36808
4476,38425
4487,39209
4497,40265
4507,41002
4518,41658
4528,40745
4539,41802
4549,41226
4559,38633
4570,34968
4580,32695
4591,31431
4601,31831
4611,30951
4622,30791
4632,31031
4643,30951
4653,30887
4663,30551
4673,31159
4683,30967
4693,31175
4704,30599
4714,31671
4725,32808
4735,33816
4745,33320
4756,32055
4766,29879
4777,29895
4787,29831
4798,29703
4808,29799
4818,30023
4829,30087
4839,32503
4850,45547
4860,45323
4870,11426
4880,25302
4891,32055
4901,31767
4912,32391
4922,33448
4932,33384
4942,33768
4952,35496
4963,34920
4973,36232
4986,37865
4997,38601
5008,39641
5018,40713
5028,41130
5039,41290
5049,41434
5060,41626
5070,39721
5080,35368
5091,32519
5101,31143
5111,30311
5122,30535
5132,30519
5143,30247
5153,30167
5163,30375
5173,29735
5183,30167
5194,30135
5204,30775
5215,32023
5225,32599
5235,33384
5246,33176
5256,31479
5267,29127
5277,29447
5287,29783
5298,29575
5308,30039
5319,30423
5329,30375
5339,31511
5350,45467
5360,45355
5371,10882
5381,25766
5391,32247
5402,33000
5412,32840
5423,33720
5433,33640
5443,34600
5454,35352
5464,36760
5475,37145
5485,38249
5495,40105
5506,40553
5516,41578
5527,41818
5537,42250
5547,42890
5558,43242
5568,40425
5579,36744
5589,33368
5599,31911
5610,31639
5620,31527
5631,31383
5641,31415
5651,31431
5662,31191
5672,31255
5683,31063
5693,32087
5703,32808
5714,33896
5724,34952
5735,33128
5745,32311
5755,29383
5766,29319
5776,29799
5787,29879
5797,29895
5807,30471
5818,29415
5828,34136
5839,48491
5849,37897
5859,9394
5870,28118
5880,31527
5891,31927
5901,32359
5911,32711
5922,33416
5932,33848
5943,34200
5953,35432
5966,36520
5977,37673
5987,38297
5997,39881
6008,40185
6018,40457
6029,40745
6039,40745
6050,39609
6060,36248
6070,32984
6081,29959
6091,29159
6102,28823
6112,29143
6122,29095
6133,29031
6143,29255
6154,29575
6164,29415
6174,30071
6185,30791
6195,32183
6206,32391
6216,30679
6226,29639
6237,27766
6247,27446
6258,27542
6268,27158
6278,27910
6289,27798
6299,28422
6310,35640
6320,49804
6330,32135
6340,7969
6351,26758
6361,29447
6372,29447
6382,30439
6392,30871
6403,32487
6413,30983
6424,33416
6434,33576
6445,33864
6455,35720
6466,37193
6476,38441
6486,39641
6497,40201
6507,39417
6518,39961
6528,37913
6538,34520
6548,32055
6558,29863
6568,28582
6579,28903
6589,28262
6600,28903
6610,28230
6620,29783
6631,29239
6641,30263
6652,31271
6662,32263
6673,34008
6683,32135
6693,30375
6704,29895
6714,28711
6725,28470
6735,28983
6745,28614
6756,29703
6766,29431
6777,32023
6787,45739
6797,52300
6808,14883
6818,18772
6829,32311
6839,31639
6849,33048
6860,32856
6870,33256
6880,34312
6891,34728
6901,35144
6912,36216
6922,38201
6935,39449
6946,40953
6956,41882
6967,42666
6977,41610
6987,41706
6998,40281
7008,37577
7019,34472
7029,32311
7039,31511
7050,30135
7060,30679
7071,31303
7081,30679
7092,31559
7102,31447
7112,33000
7123,33560
7133,34440
7144,35288
7154,33832
7164,32311
7174,30983
7185,30407
7195,30119
7206,29799
7216,30727
7227,30151
7237,31239
7247,34232
7258,51020
7268,52940
7279,10754
7289,23205
7299,33000
7310,32663
7320,32631
7331,33816
7341,33896
7351,34248
7362,34696
7372,36248
7383,36440
7393,38377
7404,39289
7414,40777
7424,42250
7435,41930
7445,41530
7456,41658
7466,40393
7476,37833
7487,34328
7497,32199
7508,31415
7518,29783
7528,29831
7539,30663
7549,30743
7560,31047
7570,31831
7580,30343
7591,31655
7601,32583
7612,34072
7622,34056
7632,33112
7643,32711
7653,30791
7664,29511
7674,29287
7684,29495
7695,29239
7705,29767
7716,29783
7726,31223
7736,43802
7747,54349
7757,16900
7768,17380
7778,31623
7788,31207
7799,30839
7809,32151
7820,31735
7830,32920
7840,33784
7851,33592
7861,35256
7872,36040
7882,37273
7892,38841
7933,40265
7944,38729
7955,37657
7965,34968
7975,30983
7986,30135
7996,29063
8007,29031
8017,29543
8027,30039
8038,28743
8048,30039
8058,30295
8069,29879
8079,28983
8090,30823
8100,30151
8111,30327
8121,32952
8131,32311
8142,32952
8152,30279
8163,28662
8173,28679
8183,27990
8194,28550
8204,27974
8215,28438
8225,30007
8235,31895
8246,47947
8256,43498
8267,8914
8277,24790
8287,31159
8298,31223
8308,31383
8319,32199
8329,32583
8339,32872
8350,33416
8360,34824
8371,34680
8381,37417
8391,36873
8402,40217
8412,39417
8423,40905
8433,39769
8443,41034
8453,39385
8464,36921
8474,33992
8485,32583
8495,29719
8505,30519
8516,30519
8526,30087
8537,30167
8547,31623
8558,31687
8568,31671
8579,30343
8589,32103
8599,32663
8610,33288
8620,34136
8631,33608
8641,33960
8651,30535
8662,29751
8672,30103
8683,30327
8693,30343
8703,30519
8714,30055
8724,31031
8735,38889
8745,51884
8755,22469
8766,15763
8776,31655
8787,31415
8797,32519
8807,32792
8818,33688
8828,33096
8839,35240
8849,34392
8859,36440
8870,35592
8880,38809
8893,39993
8904,40441
8915,41226
8925,40953
8936,40505
8946,39897
8957,38601
8967,34024
8978,31063
8988,30935
8999,29719
9009,30631
9019,30727
9030,30663
9040,32727
9051,31207
9061,30983
9071,32103
9082,31479
9092,32583
9103,34440
9113,34888
9123,33928
9134,31943
9144,30295
9155,29991
9165,30263
9175,31239
9186,29511
9196,29511
9207,30391
9217,32519
9227,42298
9238,48955
9248,13859
9259,21733
9269,32151
9279,32519
9290,32824
9300,33320
9311,33416
9321,34744
9331,34312
9342,36312
9352,36264
9363,36680
9373,38425
9383,40217
9394,40649
9404,42010
9415,41850
9425,41386
9435,40233
9446,37737
9456,35320
9467,33112
9477,30759
9487,31319
9498,30647
9508,30743
9519,30663
9529,31687
9539,31479
9550,31127
9560,31671
9571,31319
9581,31543
9591,31239
9602,32519
9612,31239
9623,33416
9633,34456
9643,34232
9654,32535
9664,30263
9675,29543
9685,30999
9695,28951
9706,30775
9716,30455
9727,31127
9737,32583
9747,44746
9758,48555
9768,11474
9779,22565
9789,31287
9799,33176
9810,33416
9820,33416
9831,32663
9841,34440
9851,35384
9865,34872
9875,36760
9886,37433
9897,39593
9907,40553
9918,41002
9928,40921
9939,40633
9949,40953
9959,39961
9970,37001
9980,34840
9991,31159
10001,31239
10011,29895
10022,30407
10032,30647
10043,30871
10053,30631
10063,31911
10074,30615
10084,32023
10095,32039
10105,30551
10115,30791
10126,30951
10136,31175
10147,31111
10157,31175
10167,32183
10178,32647
10188,34408
10199,34328
10209,34472
10219,32647
10230,30039
10240,31079
10251,30807
10261,30215
10271,31111
10282,30951
10292,31047
10303,36616
10313,50860
10323,42250
10334,10242
10344,28198
10355,33208
10365,33368
10375,33576
10386,34088
10396,35272
10407,34200
10417,35608
10427,36296
10438,37161
10448,37417
10459,39977
10469,41194
10479,41418
10490,41178
10500,41418
10511,40185
10521,41130
10531,38105
10542,35288
10552,33144
10563,31511
10573,30423
10583,29959
10593,31143
10603,30855
10614,31159
10624,32327
10634,31239
10644,32311
10655,31591
10665,31687
10676,31751
10686,30759
10696,30871
10707,30887
10717,31255
10728,30759
10738,31127
10749,32215
10759,32439
10772,34104
10783,34328
10794,33464
10804,30999
10814,30263
10825,30311
10836,30727
10846,30743
10857,30919
10867,30823
10878,32567
10888,44746
10898,51356
10909,15539
10919,20372
10930,33720
10940,32263
10950,32215
10961,33320
10971,33496
10982,34120
10992,35288
11002,35288
11013,36408
11023,36969
11034,37849
11044,39657
11054,40665
11065,40953
11075,41626
11086,40281
11096,40409
11106,39753
11117,36200
11127,33512
11138,32039
11148,30951
11158,30151
11168,30535
11179,30007
11189,30519
11200,31255
11210,31559
11221,32359
11231,30935
11241,31415
11252,30599
11262,31511
11272,31111
11282,30759
11292,31319
11303,30871
11313,30407
11324,31927
11334,32471
11344,33992
11355,34536
11365,34280
11376,32551
11386,30391
11397,30871
11407,29975
11417,30407
11428,31047
11438,31079
11449,29847
11459,34792
11469,48603
11480,46091
11490,11010
11501,26790
11511,32471
11521,32215
11532,32183
11542,33560
11553,33496
11563,34200
11573,34056
11584,35256
11594,36104
11605,36648
11615,38729
11625,39561
11636,40137
11646,40953
11692,37305
11703,34648
11713,31975
11724,30359
11734,29607
11745,29671
11755,29943
11766,30567
11776,30087
11786,31943
11797,30407
11807,30519
11817,31495
11827,30503
11837,30519
11847,30359
11858,31127
11868,31367
11879,32071
11889,33752
11899,33592
11910,32615
11920,31719
11931,28759
11941,30135
11952,29367
11962,29383
11972,30503
11983,29879
11993,29655
12004,36937
12014,48987
12024,36696
12035,11090
12045,28070
12056,31527
12066,32055
12076,33176
12087,33336
12097,33064
12108,34280
12118,34072
12128,35496
12138,36616
12149,37513
12159,39337
12170,39945
12180,40953
12190,41354
12200,41434
12210,41354
12221,42122
12231,38857
12242,35304
12252,31831
12263,30647
12273,29335
12283,30199
12294,29575
12304,30359
12315,30615
12325,31175
12335,29383
12346,31127
12356,29991
12367,30519
12377,29591
12387,31111
12398,31927
12408,32856
12419,32968
12429,32824
12439,32663
12449,29751
12460,29527
12470,29895
12481,29207
12491,29735
12501,30599
12511,30519
12521,29783
12532,39593
12542,51676
12553,22661
12563,16676
12576,32231
12587,30967
12598,32295
12608,32279
12619,33432
12629,34600
12640,33864
12650,36024
12661,35720
12671,37705
12682,38489
12692,39865
12702,41562
12713,41674
12723,42522
12734,42138
12744,42730
12754,38697
12764,36680
12775,32984
12785,30247
12796,29719
12806,30119
12816,29943
12827,29863
12837,30215
12848,31319
12858,29735
12869,30487
12879,30583
12889,30407
12900,31703
12910,32183
12921,33688
12931,34312
12941,32551
12952,30967
12962,29191
12973,30183
12983,29927
12994,29847
13004,29319
13014,31079
13025,29495
13035,33928
13046,48875
13056,43066
13066,10914
13077,25990
13087,32087
13098,33000
13108,32279
13118,32391
13129,33320
13139,34008
13150,34840
13160,35016
13170,37081
13181,36856
13191,38617
13202,40217
13212,41482
13222,42058
13233,41626
13243,42058
13254,41994
13264,37689
13274,35208
13285,33160
13295,29527
13306,29159
13316,29735
13326,29575
13337,30119
13347,30215
13358,31335
13368,29895
13378,30199
13389,31527
13399,31767
13409,33176
13420,33192
13430,33624
13441,31815
13451,28246
13461,28679
13475,29415
13485,28999
13496,29687
13506,29687
13517,30247
13527,35608
13538,48907
13548,35304
13558,9986
13569,27798
13579,31063
13589,32167
13599,31671
13610,31623
13620,32519
13631,32920
13641,33848
13652,34392
13662,36024
13672,37705
13683,38121
13693,40025
13704,40409
13714,41290
13725,41578
13735,41194
13745,40361
13756,38121
13766,32263
13777,31111
13787,29639
13797,28518
13808,29111
13818,30023
13829,30647
13839,29159
13849,29927
13860,30119
13870,31287
13881,32199
13891,32679
13901,33448
13912,31495
13922,29991
13933,28823
13943,28246
13953,27670
13964,28727
13974,28759
13985,28743
13995,29127
14005,37977
14016,50780
14026,26806
14037,11202
14047,28182
14057,30727
14068,30263
14078,30871
14089,30999
14099,31111
14109,32776
14120,33000
14130,33704
14141,34776
14151,36680
14161,38473
14172,38393
14182,40233
14193,39753
14203,39721
14213,38857
14224,37945
14234,34296
14245,32327
14255,28486
14265,29511
14276,26646
14286,27174
14297,28823
14307,28903
14317,28326
14328,30727
14338,30599
14348,31799
14361,31783
14371,32231
14382,30311
14392,29015
14403,27910
14414,29015
14424,27478
14435,27798
14445,27334
14455,28422
14466,29959
14476,41802
14487,50668
14497,18052
14508,15139
14518,30167
14528,29799
14539,29319
14549,31095
14560,31495
14570,32327
14580,32471
14591,34472
14601,34520
14612,34968
14622,35848
14632,38425
14643,39273
14653,40970
14664,40505
14674,41578
14684,39721
14695,36969
14705,34200
14716,31015
14726,29639
14736,28518
14747,29223
14757,29495
14768,30119
14778,30855
14788,30439
14799,32567
14809,32920
14820,33128
14830,34104
14840,32663
14851,31927
14861,30743
14872,29975
14882,30039
14892,28935
14903,29671
14913,30167
14924,29687
14934,34792
14944,50156
14955,49067
14965,10082
14975,26278
14986,32023
14996,31207
15007,33064
15017,32968
15027,33416
15037,34280
15047,34408
15058,35224
15068,36456
15079,37529
15089,39529
15099,40793
15110,41946
15120,42362
15131,42634
15141,42506
15151,41322
15162,38873
15172,34680
15183,32439
15193,31719
15203,30935
15214,30631
15224,30951
15235,31447
15281,33288
15291,34200
15302,35224
15312,34904
15323,33496
15333,32407
15344,31063
15354,29911
15364,31383
15375,29607
15385,31095
15395,30759
15406,30119
15416,36921
15426,51740
15437,44234
15447,10002
15458,27814
15468,33048
15478,31383
15489,32695
15499,32311
15510,33496
15520,34008
15530,35112
15541,36504
15551,36296
15562,37657
15572,38553
15583,40281
15593,41402
15603,41178
15614,41402
15624,42474
15635,39609
15645,36248
15655,33256
15666,31143
15676,30023
15687,29463
15697,29143
15707,30647
15718,31031
15728,30407
15739,31111
15749,30503
15759,31687
15770,31143
15780,31751
15791,33736
15801,33928
15811,33864
15822,32327
15832,30775
15843,30551
15853,28614
15863,29271
15874,30775
15884,29879
15895,28759
15905,30807
15915,36664
15926,50028
15936,40681
15947,9474
15957,26806
15967,31895
15978,31751
15988,32247
15999,32183
16009,32808
16019,33496
16030,35048
16040,33768
16051,36312
16061,36760
16071,38297
16082,39145
16092,41274
16103,41690
16113,40953
16123,39897
16134,39433
16144,36152
16155,34088
16168,30103
16179,31095
16189,29559
16200,28486
16210,29847
16221,30743
16231,29975
16242,31543
16252,32183
16263,31703
16273,32968
16283,34024
16294,34392
16304,33224
16315,32231
16325,31559
16335,29303
16345,29655
16356,29959
16366,29799
16377,30391
16387,29575
16398,31847
16408,44122
16418,50668
16429,18836
16439,17620
16450,30727
16460,32103
16471,33112
16481,31143
16491,33112
16502,33896
16512,33496
16523,34120
16533,35880
16543,36552
16553,39017
16564,38697
16574,40953
16585,40953
16595,40986
16605,40873
16615,40553
16625,39561
16636,34504
16646,31911
16656,32103
16666,30295
16676,29159
16687,29655
16697,30183
16708,30391
16718,31447
16728,31303
16739,32135
16749,30775
16760,32471
16770,31495
16781,30855
16791,31575
16801,32487
16812,33432
16822,34856
16833,34072
16843,33240
16853,30231
16863,29463
16874,29639
16884,29927
16895,30359
16905,30183
16916,30919
16926,32231
16936,42394
16947,51036
16957,21253
16968,16307
16978,32135
16989,31575
16999,31959
17009,33768
17020,33288
17030,33944
17041,33800
17054,34216
17064,36056
17075,37081
17085,38681
17096,39881
17106,40009
17116,41946
17127,41418
17137,40505
17148,40937
17158,38313
17168,35880
17178,32343
17189,30951
17199,29655
17210,29703
17220,29335
17231,30631
17241,31207
17251,31607
17262,32247
17272,30263
17283,31527
17293,31191
17304,31047
17314,30983
17324,31031
17335,31175
17345,31991
17356,31447
17366,32824
17376,33816
17387,34120
17397,32920
17408,31287
17418,30023
17428,30519
17439,29911
17449,30903
17460,29479
17470,30231
17480,31127
17491,38553
17501,51292
17511,39065
17521,10994
17531,29415
17542,31639
17552,32135
17563,32856
17573,33224
17583,33416
17594,34072
17604,34920
17615,35384
17625,37769
17635,36328
17646,38825
17656,39705
17667,40970
17677,41642
17687,41322
17697,40777
17708,40937
17718,38217
17729,33736
17739,32151
17750,31431
17760,29831
17770,29703
17781,30423
17791,30855
17802,31911
17812,30199
17822,31671
17833,32071
17843,31239
17854,31319
17864,31559
17874,31623
17885,31271
17895,31063
17906,31367
17916,31367
17926,32423
17940,34344
17950,34152
17961,33624
17971,32151
17982,29863
17992,30311
18002,30775
18013,30759
18023,30727
18033,30231
18044,31495
18054,37545
18065,50636
18075,40041
18085,9442
18095,26934
18105,32599
18116,32263
18126,33160
18137,33832
18147,33224
18157,33480
18168,35384
18178,35688
18189,36168
18199,36921
18209,38729
18219,39881
18230,40970
18240,41050
18251,41226
18261,41002
18272,40041
18282,38345
18292,35080
18303,34184
18313,30391
18324,30359
18334,29335
18344,30663
18355,30055
18365,30231
18376,30887
18386,31527
18396,31367
18407,31751
18417,31495
18428,30775
18438,31175
18449,31495
18459,30055
18469,30999
18480,31079
18490,32087
18501,32904
18511,32808
18521,34728
18531,34472
18542,31815
18552,31015
18563,30247
18573,30311
18584,30039
18594,30663
18604,30919
18615,30279
18625,32711
18636,43882
18646,51244
18657,17300
18667,20196
18677,31495
18688,32984
18698,32936
18709,32439
18719,33464
18729,34248
18740,33880
18750,34600
18761,36408
18771,36969
18781,37897
18792,38953
18802,39961
18813,41418
18823,41162
18865,36184
18875,34200
18886,31719
18896,30679
18907,29719
18917,29623
18928,29863
18938,30151
18948,31207
18959,31767
18969,31527
18979,31239
18990,31255
19000,31303
19011,31511
19021,31255
19032,30855
19042,30887
19052,31239
19063,31031
19073,32023
19084,33448
19094,34568
19104,34280
19115,32808
19125,31143
19136,30087
19146,30279
19156,30439
19167,30695
19177,29367
19188,30471
19198,30647
19209,40505
19219,51516
19229,26006
19240,14995
19250,30039
19261,31831
19271,32007
19281,32391
19292,33176
19302,33736
19313,33912
19323,34360
19333,34728
19344,35112
19354,36728
19365,38457
19375,39689
19385,40745
19396,41178
19406,41018
19417,40521
19427,39497
19437,37209
19448,34008
19458,31495
19469,30807
19479,29223
19489,29255
19500,29655
19510,29991
19521,28887
19531,30439
19541,30487
19552,30919
19562,30359
19573,30471
19583,30743
19593,29959
19604,29063
19614,30071
19625,30711
19635,31239
19645,32808
19656,33208
19666,32007
19677,30343
19687,28727
19697,27702
19708,29223
19718,28679
19728,29575
19739,29367
19752,30375
19763,39497
19773,50332
19784,23365
19795,16179
19805,29783
19816,30759
19826,31303
19836,31559
19847,31447
19857,32567
19868,32792
19878,34232
19888,34648
19898,34952
19908,36552
19919,38361
19929,38473
19940,40393
19950,40970
19960,40665
19971,40537
19981,40857
19992,36312
20002,34456
20012,30791
20023,29255
20033,28887
20044,29415
20054,29415
20064,30215
20075,28839
20085,29783
20096,29191
20106,30599
20116,30807
20127,29767
20137,31399
20148,30183
20158,30263
20168,31431
20179,32407
20189,33640
20200,33720
20210,31079
20220,30039
20231,29959
20241,28727
20251,29703
20262,30759
20272,29287
20283,29223
20293,30823
20303,39001
20313,51500
20323,26198
20334,15923
20344,30087
20354,31543
20365,31239
20375,32151
20386,32647
20396,33160
20407,33992
20417,34104
20427,36296
20438,35048
20448,37545
20458,39049
20469,40505
20479,40953
20490,42202
20500,42090
20511,41434
20521,41402
20531,38825
20542,34376
20552,32535
20563,30343
20573,29607
20583,30247
20594,29351
20604,30439
20615,30951
20625,31335
20638,30295
20649,31383
20659,30727
20670,30967
20680,31351
20691,32135
20701,32743
20711,34344
20722,33512
20733,33032
20743,31703
20754,30119
20764,29831
20775,30423
20785,29991
20795,30231
20806,30935
20816,30391
20827,37465
20837,50988
20847,38169
20858,10802
20868,28887
20879,31815
20889,32615
20899,33832
20910,33512
20920,33512
20931,34520
20941,34552
20951,35080
20961,36504
20972,37273
20982,39161
20993,40953
21003,41290
21014,43482
21024,41994
21034,41930
21045,41098
21055,38809
21065,35416
21075,32888
21085,31111
21096,29991
21106,29607
21117,29831
21127,29543
21137,30615
21148,30183
21158,31191
21169,30951
21179,31191
21189,31335
21200,32407
21210,32968
21221,32920
21231,34056
21241,32647
21252,31799
21262,30583
21273,29207
21283,30263
21298,29735
21309,29783
21319,29223
21329,32615
21340,41306
21350,50572
21361,19972
21371,17220
21382,30007
21392,31975
21403,31911
21413,32551
21423,32711
21434,32968
21444,34904
21455,35112
21465,35640
21475,36648
21486,37465
21496,39321
21507,40665
21517,41226
21530,42154
21541,42298
21551,41674
21562,38233
21573,35048
21583,32439
21594,31415
21604,29623
21615,30183
21625,30679
21635,29831
21646,30183
21656,30375
21667,31303
21677,31575
21687,32679
21698,33272
21708,34776
21718,33384
21729,34392
21739,31527
21750,31047
21760,30423
21771,30055
21781,31367
21791,29815
21802,29399
21812,29655
21823,30231
21833,38841
21843,51756
21854,36200
21864,11410
21875,29127
21885,32279
21895,31735
21906,31575
21916,32535
21927,33432
21937,33560
21947,34808
21958,35592
21968,36248
21979,37801
21989,38553
21999,39593
22009,41770
22020,41738
22030,42234
22041,42138
22051,41274
22062,36184
22072,33560
22082,32439
22093,29959
22103,29751
22113,30103
22123,29799
22133,30839
22144,30743
22154,30423
22165,31015
22175,30663
22185,32263
22196,32968
22206,34392
22217,34904
22227,33352
22237,32519
22248,30231
22258,29255
22269,29655
22279,29623
22290,29879
22300,30951
22310,29591
22321,32311
22331,45067
22341,51276
22352,18628
22362,17716
22373,30647
22383,31543
22394,31303
22404,32199
22414,33176
22456,35112
22467,35992
22477,38441
22487,39145
22498,40057
22508,41578
22519,41354
22529,41258
22540,40953
22550,39209
22560,35112
22571,32295
22581,31111
22592,29687
22602,29367
22613,29191
22623,30103
22633,31319
22644,30039
22654,31287
22665,31191
22675,30375
22686,31239
22696,31463
22706,32071
22717,33784
22727,33512
22738,33864
22748,33416
22758,31303
22769,29911
22779,30487
22790,29895
22800,29655
22810,30423
22821,30183
22831,30215
22842,33880
22852,47915
22862,50860
22873,13187
22883,21701
22894,31831
22904,31559
22914,32183
22925,32856
22935,33576
22946,33368
22956,34120
22966,36104
22977,34920
22987,36120
22997,38537
23008,38841
23018,40729
23029,41498
23039,41946
23050,41354
23060,42202
23070,38937
23081,35336
23091,32936
23102,31511
23112,30487
23122,30455
23133,30183
23143,29975
23154,30599
23164,31063
23174,31703
23185,31575
23195,31719
23206,31943
23216,31767
23226,31799
23237,31799
23247,32663
23258,33832
23268,34312
23278,34264
23289,32904
23299,30135
23310,31303
23320,30151
23333,30487
23344,29991
23354,30263
23365,30103
23376,34408
23386,47659
23397,49772
23407,11202
23418,24630
23428,32215
23438,30903
23449,31687
23459,32439
23470,33176
23480,33576
23490,34200
23501,35144
23511,35224
23522,36488
23532,37257
23542,39337
23553,40633
23563,41370
23574,41674
23584,41962
23594,40665
23604,39817
23615,35864
23625,32920
23636,30967
23646,29895
23657,29575
23667,30279
23677,29927
23688,30359
23698,30423
23709,30439
23719,30727
23730,31175
23740,30983
23750,31015
23761,30935
23771,31383
23782,32167
23792,33208
23802,33640
23813,32167
23823,31399
23834,29655
23844,29591
23854,30359
23865,29223
23875,29719
23886,29895
23896,29367
23906,33992
23917,47899
23927,47771
23938,11298
23948,25830
23958,31783
23969,31207
23979,31655
23990,32535
24000,32151
24010,33208
24020,33624
24031,34888
24041,35272
24052,36776
24062,37817
24072,39097
24083,41050
24093,40953
24104,40953
24114,41770
24125,40937
24135,39273
24146,36312
24156,32711
24166,31335
24177,29335
24187,29335
24198,29239
24208,29703
24218,29463
24232,30023
24242,30119
24253,30695
24263,29927
24274,29415
24284,30423
24294,30359
24304,31271
24315,32711
24325,33256
24336,32263
24346,30871
24357,29623
24367,28134
24377,28598
24388,28743
24398,28855
24409,29479
24419,29287
24429,30631
24440,43834
24450,50876
24461,12114
24471,19220
24481,30183
24492,31015
24502,30807
24513,31079
24523,31783
24533,32375
24544,33048
24554,33480
24565,35032
24575,34968
24586,36648
24596,38345
24606,39561
24617,40953
24627,41418
24637,40937
24648,40217
24658,37817
24668,35384
24679,31879
24689,30007
24700,28406
24710,28358
24720,28951
24730,27782
24740,28182
24751,29511
24761,29191
24772,29495
24782,29623
24792,30407
24803,31335
24813,33032
24824,32439
24834,32023
24844,30663
24854,29479
24865,28150
24875,28390
24886,28743
24896,29159
24906,28662
24916,28839
24926,28743
24937,38617
24947,50364
24958,25318
24968,11426
24979,28214
24989,30007
24999,31015
25010,30663
25020,30855
25031,31751
25041,31895
25051,33288
25061,33576
25072,35416
25082,36616
25093,38553
25103,38329
25116,40473
25127,40761
25138,40281
25148,40409
25158,38441
25168,35352
25178,33368
25188,30343
25199,29543
25209,28518
25220,29031
25230,28422
25240,30103
25251,30679
25261,31287
25272,31303
25282,31159
25293,32615
25303,33272
25313,33816
25324,33576
25334,32519
25345,31927
25355,30599
25365,29719
25376,29111
25386,30007
25397,30103
25407,30487
25417,31191
25428,39049
25438,52892
25449,38345
25459,9842
25469,28983
25480,31895
25490,31783
25501,33240
25511,33416
25521,34568
25532,33192
25542,34584
25553,35528
25563,36889
25573,38089
25583,38457
25594,40953
25604,42522
25615,43290
25625,42122
25636,41818
25646,40937
25656,37689
25667,34232
25677,32663
25688,31543
25698,31575
25708,30087
25719,29655
25729,30087
25740,31319
25750,31175
25760,31367
25771,33320
25781,33496
25792,33160
25802,34104
25813,35304
25823,32968
25833,32487
25844,29783
25854,30823
25865,30615
25875,30151
25885,30167
25896,29367
25906,31031
25917,34472
25927,48331
25937,50028
25948,10866
25958,22485
25969,31719
25979,31511
25989,32199
26000,31143
26039,34504
26050,35016
26060,36168
26071,37673
26081,38953
26091,40713
26101,40970
26112,42282
26122,41722
26133,40585
26143,37993
26154,35080
26164,32968
26174,30503
26185,29911
26195,29591
26206,30007
26216,29895
26226,28887
26236,31575
26247,30119
26257,30151
26268,31111
26278,31367
26289,32535
26299,30743
26309,32343
26320,33672
26330,33976
26340,33752
26350,31575
26360,32135
26371,28422
26381,29351
26392,29319
26402,29799
26412,29623
26423,29719
26433,31335
26443,40809
26454,51212
26464,31575
26475,10018
26485,30295
26496,31527
26506,31111
26516,31799
26527,32663
26537,32727
26548,33752
26558,33688
26569,36808
26579,34088
26590,36520
26600,39129
26610,39481
26621,41146
26631,42794
26641,41498
26652,41114
26662,39641
26673,37577
26683,33960
26693,32007
26704,30263
26714,29191
26725,29479
26735,29655
26745,30055
26756,30327
26766,31703
26777,31063
26787,32263
26797,30615
26808,31639
26818,31511
26829,31591
26839,30839
26849,31271
26860,31415
26870,30983
26881,31079
26891,32327
26901,33816
26912,33384
26925,34376
26936,31559
26947,30167
26957,30039
26968,31111
26978,29367
26989,30567
26999,30727
27009,31399
27020,36808
27030,52060
27041,45291
27051,9554
27061,26854
27072,32743
27082,32023
27093,33032
27103,33128
27113,32952
27124,34600
27134,33752
27145,35640
27155,36008
27165,36808
27176,38089
27186,39497
27197,41034
27207,40953
27217,41882
27228,40937
27238,41258
27249,38745
27259,36632
27269,34520
27279,32551
27289,29959
27299,30087
27310,29799
27320,29959
27331,31191
27341,31655
27351,31335
27362,30983
27372,32039
27383,31831
27393,31927
27404,31767
27414,30807
27424,31847
27435,31143
27445,31527
27456,31415
27466,32263
27476,32904
27487,34728
27497,34760
27508,33848
27518,32391
27528,30535
27539,30375
27549,30487
27560,30855
27570,30983
27580,30471
27591,31127
27601,36760
27612,49580
27622,46987
27632,9730
27643,25254
27653,31879
27664,32551
27674,34120
27684,32776
27695,32808
27705,34008
27716,34536
27726,34120
27736,35656
27747,36584
27757,37689
27768,39609
27778,40393
27788,40953
27799,41674
27812,41498
27823,40073
27833,37785
27844,35640
27854,32519
27864,32567
27875,29463
27886,30551
27896,29127
27907,30567
27917,30631
27927,30759
27938,32183
27948,30983
27959,31975
27969,31463
27980,32215
27990,32279
28000,31255
28011,31239
28021,31719
28031,32055
28041,33688
28051,34344
28062,34216
28072,33960
28083,32279
28093,30279
28103,30759
28114,30471
28124,30311
28135,30967
28145,30247
28155,31079
28166,35416
28176,48363
28187,48075
28197,11650
28207,23829
28218,32167
28228,32071
28239,32103
28249,33272
28259,32920
28270,34312
28280,34008
28291,34744
28301,35784
28311,35752
28322,37449
28332,40249
28343,39785
28353,41930
28363,42314
28374,41258
28384,40986
28395,39465
28405,35768
28415,34008
28426,30647
28436,30007
28447,29927
28457,29911
28467,29143
28478,30951
28488,30583
28499,30487
28509,30903
28519,31687
28530,31367
28540,30855
28551,31159
28561,31143
28571,30951
28582,31895
28592,33176
28603,33320
28613,33736
28623,33352
28633,31319
28644,29367
28654,29975
28665,30039
28675,30231
28686,30551
28699,30263
28709,31751
28719,40873
28729,52252
28739,35432
28749,10946
28759,28775
28770,31335
28780,32535
28791,33768
28801,32647
28811,33704
28822,33576
28832,34456
28843,34776
28853,35400
28864,36296
28874,38825
28884,39673
28895,41466
28905,41962
28916,40633
28926,40889
28936,40697
28947,38409
28957,35528
28968,32936
28978,30935
28988,29895
28999,30103
29009,29735
29020,29431
29030,30743
29040,31335
29050,31063
29061,32615
29071,31623
29082,31719
29092,31463
29103,31143
29113,31399
29123,31783
29134,33128
29144,34776
29155,34216
29165,32840
29176,32391
29186,30807
29196,29799
29207,30247
29217,30279
29228,30567
29238,30727
29248,30535
29259,32327
29269,44314
29280,52220
29290,16868
29300,19348
29311,31879
29321,32343
29332,31639
29342,32583
29352,32711
29363,33352
29373,34408
29384,35144
29394,35384
29404,35560
29415,37865
29425,38393
29436,39977
29446,40970
29456,41850
29466,41130
29477,41562
29487,40201
29498,37897
29508,34184
29518,33416
29528,30439
29538,29735
29549,29991
29559,29863
29569,30791
29580,31015
29620,31495
29631,30743
29641,30935
29652,33160
29662,30263
29673,31239
29683,31783
29693,32375
29704,34616
29714,34008
29724,34472
29735,31543
29745,31191
29756,30967
29766,30087
29776,30183
29787,30951
29797,30855
29808,30183
29818,33352
29829,45147
29839,52668
29849,17252
29860,20533
29870,31255
29881,31527
29891,32407
29901,32647
29912,34008
29922,32968
29933,34568
29943,34312
29953,35496
29964,35976
29974,37721
29985,38745
29995,39881
30005,41002
30016,41498
30026,41706
30037,41418
30047,40970
30057,37817
30068,35736
30078,33256
30089,30567
30099,29799
30109,30391
30120,30359
30130,29959
30141,31191
30151,30887
30161,30087
30172,31623
30182,31111
30193,31431
30203,30999
30213,31159
30224,32792
30234,32359
30245,34024
30255,33496
30265,32743
30276,31367
30286,31207
30297,29143
30307,29191
30317,30535
30328,29847
30338,29799
30349,30951
30359,36312
30369,49548
30380,41898
30390,9426
30401,27062
30411,31175
30421,32135
30431,32599
30442,32519
30452,33432
30463,33032
30473,34584
30483,34168
30497,36248
30507,37945
30518,37785
30528,39465
30539,41114
30549,42202
30560,42090
30570,41674
30581,41114
30591,38089
30601,35688
30612,32199
30622,30423
30632,30599
30642,29655
30653,29703
30663,29927
30674,30151
30684,29927
30695,31271
30705,30503
30715,30903
30726,30919
30736,32167
30747,32071
30757,32423
30768,33448
30778,33032
30788,31783
30799,30807
30809,29207
30820,30647
30830,28743
30840,29703
30850,28903
30861,29559
30871,30087
30882,36712
30892,50716
30903,36536
30913,9474
30923,26934
30934,31271
30944,30951
30955,32231
30965,31751
30976,31703
30986,33160
30996,33704
31007,34216
31017,34184
31028,37433
31038,36392
31048,38841
31059,41018
31069,40553
31080,41018
31090,40249
31101,39609
31111,36568
31121,34504
31132,31511
31142,29847
31152,30615
31162,27702
31173,28406
31183,28502
31194,28951
31204,29511
31214,29895
31224,31175
31234,31495
31245,31207
31255,32519
31266,33128
31276,32984
31287,30743
31297,30343
31307,28855
31318,28791
31328,28951
31339,28775
31349,28935
31359,27734
31370,29383
31383,36056
31394,50140
31404,33256
31415,10690
31425,26694
31436,29479
31446,30167
31457,30679
31467,31399
31478,31927
31488,33064
31499,33352
31509,32295
31519,35864
31530,35016
31540,37545
31551,38697
31561,40073
31571,41034
31581,41498
31592,40105
31602,39113
31613,36264
31623,33848
31634,30855
31644,30087
31654,29031
31665,29623
31675,28935
31686,29335
31696,29367
31707,30231
31717,30823
31727,31575
31738,31575
31748,32808
31759,34136
31769,32743
31779,34680
31790,31335
31800,30567
31811,30119
31821,29335
31831,29703
31842,29671
31852,31207
31863,28855
31873,29415
31883,38457
31894,50092
31904,35752
31915,10818
31925,28038
31935,32087
31946,31511
31956,30615
31967,31415
31977,32599
31987,32792
31998,33752
32008,34392
32019,35448
32029,35896
32039,37465
32050,39561
32060,40601
32071,40953
32081,41770
32091,41114
32101,41098
32112,37689
32122,35208
32133,31543
32143,30775
32153,30471
32163,29735
32173,29783
32184,30247
32194,30263
32205,30471
32215,30775
32226,31207
32236,31847
32246,32071
32257,33720
32267,33816
32280,33928
32291,32663
32301,31927
32312,30775
32322,29687
32333,30359
32343,30215
32353,29463
32363,30151
32373,30519
32384,30855
32394,41242
32404,52140
32414,28198
32424,13379
32434,30135
32445,30903
32455,30311
32466,32119
32476,32263
32486,31847
32497,32631
32507,33448
32518,34392
32528,36104
32539,35768
32549,38281
32559,38697
32570,39369
32580,41258
32591,40777
32601,41434
32611,39529
32621,37945
32632,33928
32642,31719
32653,30263
32663,29863
32674,29527
32684,28983
32694,28823
32705,30551
32715,30535
32726,30343
32736,30247
32747,30407
32757,30999
32767,30295
32778,31143
32788,31335
32799,32439
32809,33432
32819,33336
32830,33208
32840,31895
32851,29911
32861,29479
32871,29831
32882,30279
32892,29735
32903,29527
32913,31367
32923,30935
32933,40681
32944,52412
32954,24469
32965,15267
32975,30775
32986,31959
32996,32023
33006,31815
33017,33240
33027,32840
33038,33864
33048,34280
33059,34712
33069,35496
33079,37001
33090,37865
33100,40297
33111,42330
33121,40729
33131,42826
33142,41530
33152,40553
33191,32167
33202,29687
33213,30535
33223,30231
33233,29783
33244,30791
33255,30903
33265,31463
33276,30903
33286,31335
33296,31895
33306,31079
33316,31591
33327,32904
33337,34216
33348,34392
33358,33192
33368,32071
33379,30407
33389,29511
33400,29799
33410,30183
33420,29687
33431,29911
33441,30343
33452,31223
33462,39145
33472,52412
33483,26518
33493,13571
33504,30631
33514,31575
33524,31671
33535,32423
33545,33592
33556,33256
33566,33352
33576,34824
33586,34856
33597,36248
33607,36856
33618,39737
33628,39689
33638,41834
33649,41466
33659,41930
33670,42202
33680,41066
33691,38201
33701,35688
33712,33448
33722,30903
33732,29991
33743,30423
33753,30151
33764,30311
33774,30855
33784,31239
33795,30999
33805,30807
33816,31415
33826,31495
33836,33016
33847,33688
33857,34008
33868,34056
33878,32727
33888,31639
33899,29383
33909,30455
33920,29783
33930,30055
33940,30151
33951,29879
33961,30663
33972,37129
33982,50268
33992,38601
34003,9394
34013,28775
34024,30695
34034,31399
34044,32535
34055,32583
34065,33608
34078,33704
34089,34472
34099,33768
34110,35160
34120,36840
34131,39721
34141,42122
34152,40233
34162,43434
34172,39177
34183,40185
34193,38953
34203,37193
34213,34856
34224,33304
34234,30551
34245,30551
34255,29799
34266,29543
34276,30999
34286,30647
34297,31207
34307,31799
34318,31911
34328,33320
34339,35448
34349,34152
34359,33352
34370,33336
34380,31735
34391,30215
34401,29863
34411,31079
34422,30279
34432,31447
34443,30215
34453,30439
34463,31879
34474,45067
34484,49724
34495,15587
34505,20837
34515,29751
34526,30999
34536,30807
34547,31719
34557,32439
34567,32872
34578,33848
34588,33960
34599,35000
34609,35144
34619,36856
34629,38617
34639,39641
34649,40169
34660,41690
34670,40617
34681,40009
34691,38729
34701,36264
34712,33240
34722,31127
34733,31303
34743,29143
34754,29111
34764,30679
34774,27974
34785,29895
34795,30567
34806,30887
34816,32263
34826,32599
34837,33256
34847,33800
34858,33624
34868,32679
34878,31527
34889,30087
34899,29191
34910,29175
34920,30759
34930,28951
34941,29911
34951,29063
34964,35144
34975,50876
34986,39593
34996,9634
35006,26694
35016,30039
35027,30967
35037,30775
35048,32087
35058,31911
35069,31943
35079,33352
35089,33928
35100,34536
35110,35752
35121,36072
35131,38185
35141,39641
35152,40409
35162,40873
35173,40345
35183,38761
35193,37897
35204,34248
35214,32119
35225,30599
35235,29607
35245,29783
35256,28999
35266,29863
35277,29399
35287,30231
35297,30231
35308,30391
35318,31783
35329,30727
35339,32151
35349,32663
35359,33848
35370,33560
35380,32087
35391,30023
35401,29447
35411,28470
35422,29159
35432,29143
35443,29111
35453,29015
35464,29207
35474,31543
35485,44042
35495,50332
35505,13347
35516,19220
35526,30551
35537,29639
35547,31143
35557,30999
35567,31463
35578,31671
35588,32151
35599,33192
35609,33640
35620,35048
35630,36152
35640,37225
35651,38281
35661,40761
35672,39449
35682,40857
35692,39993
35703,39465
35713,36905
35724,33352
35734,30759
35744,30007
35755,29719
35765,28518
35776,30167
35786,28935
35797,30487
35807,30343
35817,30615
35828,31015
35838,30503
35849,31015
35862,31543
35872,32535
35883,33384
35893,33768
35904,33976
35914,31399
35925,30503
35935,29479
35945,30663
35956,30183
35966,29367
35976,29927
35987,30599
35997,30471
36007,36856
36018,51052
36028,39625
36039,11986
36049,27526
36059,32071
36070,31319
36080,32167
36091,33368
36101,34024
36112,33576
36122,36664
36132,32359
36143,34760
36153,36969
36164,37721
36174,39369
36184,41258
36195,41626
36205,40953
36216,41002
36226,40521
36236,38281
36247,36248
36257,33688
36268,32872
36278,31751
36288,30023
36299,28919
36309,29879
36320,29575
36330,30599
36340,31671
36351,32199
36361,31815
36372,32984
36382,34536
36392,33384
36402,34056
36413,33464
36423,32407
36434,29831
36444,28470
36455,29751
36465,30567
36475,30327
36486,29911
36496,29863
36507,32487
36517,43722
36528,49484
36538,13635
36548,20372
36559,30407
36569,32792
36580,29767
36590,32151
36600,32663
36611,32679
36621,33080
36632,34248
36642,33960
36652,35688
36663,37017
36673,37769
36684,40201
36694,40329
36704,42154
36714,41386
36725,39145
36735,39513
36774,31175
36784,30519
36795,29687
36805,31047
36816,30215
36826,30183
36836,30311
36846,31879
36856,32391
36866,33720
36877,34088
36887,33336
36898,35768
36908,33176
36918,31575
36929,30519
36939,30103
36950,30391
36960,29975
36971,29895
36981,30679
36991,29847
37002,35352
37012,49067
37023,46683
37033,10370
37043,23205
37053,30007
37063,32039
37073,31815
37084,32295
37094,33000
37105,32679
37115,32856
37125,34120
37136,34408
37146,36280
37157,37177
37167,39401
37178,39209
37188,40601
37198,42298
37209,40153
37219,40505
37230,38697
37240,36280
37250,33336
37261,31831
37271,30423
37282,29383
37292,29511
37302,29447
37313,30231
37323,30327
37334,31255
37344,31287
37354,32151
37365,33624
37375,34328
37386,35544
37396,34376
37406,32583
37417,31911
37427,30183
37438,29479
37448,30407
37458,30007
37469,30743
37479,30007
37490,29959
37500,34024
37510,45979
37521,50540
37531,14003
37542,19844
37552,30871
37562,31575
37573,31367
37583,31815
37594,32663
37604,33592
37614,33064
37625,34456
37635,36168
37646,37113
37659,36664
37669,37721
37680,39993
37690,41050
37701,40970
37711,41114
37721,41674
37732,38761
37742,35720
37753,33176
37763,31687
37773,29959
37784,30263
37794,30279
37804,30551
37815,30631
37825,32647
37836,30679
37846,30983
37856,32824
37867,31655
37877,33640
37888,34312
37898,36248
37909,34056
37919,34008
37929,31431
37940,30231
37950,30311
37961,30599
37971,31143
37981,30375
37992,30887
38002,30455
38013,31847
38023,42282
38033,52652
38044,24533
38054,16307
38065,30487
38075,32679
38085,31319
38096,33048
38106,33000
38116,33224
38127,33224
38137,34872
38148,35224
38158,35992
38168,35528
38179,36664
38189,39305
38200,41130
38210,40937
38221,40986
38231,40345
38241,39209
38252,37849
38262,34840
38273,32727
38283,31079
38293,29863
38304,30183
38314,29911
38325,30919
38335,29111
38345,31015
38356,31831
38366,31959
38377,30951
38387,30807
38397,31303
38408,31159
38418,30855
38429,32279
38439,32279
38449,34184
38460,33800
38470,33192
38481,31447
38491,30007
38501,29287
38512,29831
38522,30439
38533,30215
38546,31303
38557,29879
38567,33736
38577,46363
38588,48475
38599,12034
38609,24197
38620,31175
38630,32071
38641,31895
38651,32391
38661,32856
38672,33736
38682,33160
38693,34232
38703,34024
38713,36168
38724,36776
38734,39049
38745,40169
38755,40937
38765,40201
38776,40761
38786,40249
38797,39769
38807,37849
38817,35352
38827,32455
38838,31799
38848,29463
38859,30343
38869,29703
38879,30999
38890,32055
38900,30743
38911,31303
38921,32519
38932,31543
38942,31799
38953,30535
38963,32071
38973,32231
38984,34072
38994,36392
39005,35208
39015,32952
39025,29847
39036,29735
39046,30855
39057,29399
39067,29623
39077,31143
39088,32551
39098,31351
39109,35304
39119,48667
39129,42138
39140,9762
39150,27030
39161,31927
39171,32808
39181,32199
39192,32711
39202,32615
39213,33288
39223,32583
39233,34248
39244,35704
39254,36264
39265,38233
39275,40265
39285,39657
39296,40089
39306,40009
39317,40681
39327,40025
39337,38585
39348,36424
39358,35176
39369,30855
39379,31175
39389,28294
39400,29783
39410,28630
39421,30215
39434,30951
39444,31399
39455,30647
39465,31511
39476,31047
39486,32936
39496,33640
39507,34984
39517,33432
39528,31767
39538,30471
39548,29111
39558,28502
39569,28695
39579,28967
39590,29543
39600,29719
39611,29671
39621,38377
39631,51756
39642,32039
39652,10082
39663,29303
39673,29591
39683,29911
39694,31447
39704,32263
39715,32920
39725,34728
39735,31191
39746,35224
39756,34888
39766,34776
39777,36969
39787,38505
39798,39913
39808,40553
39818,41402
39828,41354
39838,38505
39849,37257
39859,35640
39870,31591
39880,31511
39891,29975
39901,29655
39911,29383
39922,31383
39932,30871
39943,29607
39953,32023
39963,32103
39974,31447
39984,32920
39995,33480
40005,35256
40015,34216
40026,33080
40036,31175
40047,30855
40057,29831
40067,29031
40078,29991
40088,30919
40099,29495
40109,28759
40119,34376
40130,45419
40140,50988
40151,13075
40161,18996
40171,31367
40182,31831
40192,30711
40203,32151
40213,33064
40223,32792
40234,33656
40244,33688
40255,35656
40265,35080
40275,35672
40285,38633
40296,39641
40306,40073
40317,41450
40359,37033
40369,33384
40380,31879
40390,31415
40401,30599
40411,30439
40422,30039
40432,29863
40442,30439
40453,31079
40463,31047
40474,32824
40484,32327
40495,32007
40505,33496
40515,33592
40526,34776
40536,33240
40547,32824
40557,32023
40567,29863
40578,29959
40588,29799
40599,31351
40609,29447
40619,30535
40630,29783
40640,35016
40651,48603
40661,48539
40671,9762
40682,24421
40692,31511
40703,31495
40713,32247
40723,32327
40733,32151
40744,33032
40754,33592
40765,34648
40775,34952
40786,36168
40796,36824
40806,38377
40817,39465
40827,40841
40838,41002
40848,40889
40858,40953
40869,39241
40879,36616
40890,33960
40900,31239
40910,31111
40921,30983
40931,29751
40942,30567
40952,31303
40963,31303
40973,31159
40983,31879
40994,31671
41004,32327
41015,30759
41025,31959
41035,32039
41046,31495
41056,31991
41067,32695
41077,34040
41087,34648
41098,34280
41108,33096
41119,30855
41129,30119
41139,30663
41150,29463
41160,30119
41171,30279
41181,31511
41191,30631
41202,38953
41212,51884
41223,35448
41233,12547
41246,31031
41257,31239
41267,32343
41278,32167
41288,32407
41299,32247
41309,33688
41319,32920
41330,34456
41341,35304
41351,36712
41362,37481
41372,38937
41383,40089
41393,40809
41403,40953
41414,39577
41424,39353
41435,38985
41445,35528
41455,32135
41466,31719
41476,30663
41487,30311
41497,29831
41507,31335
41518,30055
41528,30791
41539,30759
41549,31511
41559,31367
41570,30983
41580,31927
41591,30647
41601,31047
41611,30999
41622,32439
41632,32840
41643,33240
41653,34248
41663,32727
41673,31079
41684,30119
41694,29463
41705,30343
41715,30119
41725,30455
41736,29767
41746,29367
41757,34344
41767,47627
41778,48155
41788,12307
41798,24614
41809,32423
41819,30887
41830,30983
41840,32615
41850,32279
41861,33480
41871,33512
41882,34296
41892,35672
41903,36280
41913,36424
41923,37721
41934,39737
41944,40265
41955,40649
41965,41770
41975,41066
41985,40601
41996,38425
42006,34104
42017,32231
42027,31063
42038,30695
42048,30999
42058,31047
42069,31399
42079,31383
42090,30407
42100,31415
42111,31031
42121,31527
42134,32135
42145,32247
42156,32039
42166,34472
42177,34200
42187,33976
42198,33416
42208,31799
42219,29879
42229,29479
42239,30087
42250,30231
42260,30727
42271,31431
42281,29527
42291,34376
42302,47771
42312,47147
42323,10914
42333,23573
42343,31287
42354,31799
42364,31719
42375,32247
42385,32711
42395,32199
42406,32567
42416,35336
42427,35480
42437,35496
42447,36216
42458,38441
42468,38617
42479,40281
42489,40521
42499,40841
42509,39769
42520,39609
42530,36648
42541,34248
42551,31447
42561,29255
42572,30791
42582,28662
42593,29591
42603,30791
42613,30295
42624,31159
42634,30903
42645,32375
42655,30455
42666,32695
42676,33432
42686,33880
42697,34568
42707,33384
42718,31191
42728,30471
42743,30295
42754,29127
42764,29815
42774,29351
42785,29479
42795,31351
42806,40009
42816,50076
42827,29847
42837,12451
42848,29399
42858,29639
42868,31687
42879,32151
42889,32711
42900,32679
42910,32984
42920,33192
42931,34216
42941,34776
42951,36824
42962,37897
42972,38441
42983,39913
42993,40873
43004,40025
43014,40441
43024,39385
43037,37065
43047,34840
43058,32679
43068,30935
43079,29959
43089,30439
43099,29223
43109,31239
43120,30631
43130,31943
43141,30183
43151,31767
43162,31911
43172,31511
43182,33576
43193,35160
43203,33864
43214,33416
43224,32711
43234,31239
43245,29687
43255,30039
43266,29527
43276,30311
43286,31415
43297,29591
43307,29351
43318,35512
43328,48139
43338,44730
43349,10962
43359,25238
43370,30647
43380,31639
43390,31271
43401,31911
43411,31639
43422,33192
43432,33336
43442,34264
43453,35512
43463,34984
43473,37513
43484,38041
43494,40105
43505,39657
43515,40169
43525,40457
43536,40377
43546,39785
43557,36600
43567,33960
43578,32808
43588,30871
43598,29111
43609,29783
43619,29879
43630,30487
43640,31367
43650,32199
43661,31927
43671,31831
43682,31911
43692,30663
43702,31703
43713,31623
43723,32727
43734,34264
43744,35608
43754,33992
43764,31111
43775,31687
43785,29799
43796,31671
43806,29015
43817,29719
43827,30919
43837,29351
43848,30503
43858,36072
43869,50204
43879,43194
43890,10498
43900,25526
43910,30983
43953,33224
43964,33144
43974,34456
43985,33304
43995,34408
44006,36008
44016,36568
44027,38489
44037,38489
44047,40729
44058,40649
44068,41786
44079,39481
44089,37449
44099,36136
44110,33400
44120,31895
44131,30615
44141,29703
44152,31063
44162,31271
44172,29287
44183,30679
44193,31383
44203,31879
44214,31367
44224,32391
44235,32167
44245,32263
44255,32423
44266,30919
44276,32007
44287,33592
44297,34488
44307,35064
44318,32872
44328,31255
44339,30119
44349,30519
44359,29207
44370,30471
44380,30871
44391,29255
44401,31591
44411,36088
44422,50220
44432,45323
44443,10370
44453,24774
44463,31383
44474,32551
44484,31511
44495,32487
44505,32808
44515,33624
44526,32840
44536,34344
44547,34328
44557,35768
44567,36184
44578,38473
44588,38633
44599,41066
44609,40345
44619,40233
44630,39945
44640,40249
44651,35688
44661,33896
44671,32391
44682,31287
44692,30615
44703,30167
44713,29959
44723,31335
44733,30615
44744,30487
44754,31751
44765,31783
44775,32215
44786,31015
44796,32263
44806,31895
44817,31463
44830,32359
44841,32295
44851,33896
44862,35176
44872,34088
44883,32615
44893,30887
44903,30759
44914,31383
44925,29271
44935,31271
44946,30807
44956,30567
44967,30855
44977,39209
44987,51724
44998,38969
45008,10962
45019,27494
45029,31255
45039,31751
45050,32135
45060,33352
45071,32231
45081,33832
45091,34200
45102,33416
45112,34248
45123,36264
45133,36504
45143,38633
45153,39817
45164,40169
45174,41114
45185,40793
45195,39625
45205,38601
45215,36040
45225,34936
45236,31783
45246,31111
45257,30759
45267,30791
45278,30103
45288,28646
45298,31079
45309,30951
45319,31271
45330,31639
45340,31815
45350,32327
45361,31207
45371,30535
45382,31143
45392,30535
45402,30951
45413,31463
45423,30695
45434,32743
45444,32840
45454,34216
45465,34024
45475,31767
45486,30999
45496,29735
45506,30135
45517,29191
45527,30183
45538,31847
45548,30135
45558,28246
45569,35096
45579,49980
45590,45147
45600,9106
45610,24582
45621,31255
45631,31303
45642,33112
45652,31191
45662,30647
45672,32519
45683,33064
45693,31927
45704,33368
45714,35656
45727,35544
45738,39417
45749,38057
45759,38969
45769,38489
45779,40393
45790,38841
45800,37561
45811,35656
45821,33192
45832,31847
45842,30471
45852,27910
45863,29431
45873,29447
45884,30727
45894,30183
45905,29495
45915,31079
45925,30887
45936,30743
45946,31031
45957,30983
45967,31063
45977,30487
45988,31511
45998,29831
46009,30647
46019,30551
46029,29975
46040,31271
46050,32439
46061,33368
46071,33656
46081,34024
46091,32311
46101,31767
46111,30455
46122,28887
46132,30039
46143,29543
46153,30375
46163,30551
46174,30775
46184,36824
46195,51020
46205,43978
46216,9522
46226,26390
46236,31431
46247,32135
46257,31495
46268,33288
46278,32840
46288,33160
46299,33848
46309,33704
46320,34344
46330,35592
46340,37049
46351,38345
46361,39305
46372,39817
46382,40953
46392,39929
46403,40345
46413,39097
46424,37449
46434,35608
46444,33976
46455,31367
46465,30551
46476,30359
46486,30087
46496,30807
46507,31255
46517,31447
46528,32343
46538,32295
46548,32023
46559,32167
46569,32087
46580,32471
46590,32343
46600,31463
46613,32615
46624,30903
46634,31559
46645,31655
46655,33048
46666,32727
46676,34648
46687,35160
46697,35080
46707,33176
46717,32679
46727,30311
46737,30535
46748,31159
46758,30903
46769,30791
46779,31479
46789,31447
46800,37113
46810,51436
46821,45835
46831,12034
46842,26886
46852,31991
46862,31639
46873,32615
46883,33224
46894,33000
46904,34120
46914,33400
46924,34296
46935,34984
46945,36024
46956,36536
46966,37865
46976,39657
46986,40825
46996,41738
47007,40393
47017,39785
47028,40793
47038,39097
47049,35928
47059,33048
47069,31991
47080,31831
47090,31047
47101,29399
47111,30487
47121,30967
47132,30791
47142,31271
47153,31367
47163,31159
47173,32151
47184,31015
47194,30807
47205,31559
47215,31447
47225,31271
47236,31175
47246,30823
47257,32071
47267,33640
47277,33096
47288,34216
47298,34872
47309,33096
47319,31143
47329,30855
47340,29943
47350,31959
47361,29767
47371,30807
47381,30711
47392,30455
47402,37673
47413,50796
47423,43306
47433,11074
47444,28630
47454,31191
47465,31335
47475,32407
47485,32727
47524,34392
47535,34776
47546,35432
47556,36392
47566,37529
47576,39369
47587,40953
47597,41258
47608,40953
47618,40953
47629,40329
47639,38473
47649,36072
47660,33640
47670,31799
47681,30263
47691,30247
47701,30983
47712,29975
47722,31175
47733,31271
47743,30791
47753,31015
47764,31783
47774,31191
47785,31911
47795,31671
47806,31511
47816,31319
47826,31495
47837,32055
47847,32920
47858,34184
47868,35112
47878,33880
47889,32439
47899,30647
47910,30311
47920,30887
47930,30935
47941,30807
47951,29463
47962,31655
47972,32952
47982,42938
47993,52060
48003,21525
48014,17412
48024,30967
48034,31751
48045,32263
48055,31959
48066,33096
48076,33720
48086,33688
48097,34024
48107,34968
48118,34840
48128,36648
48138,36072
48149,40201
48159,39657
48170,40953
48180,41994
48190,39977
48201,40025
48211,38633
48222,35816
48232,33032
48242,31767
48253,30135
48263,30215
48274,29847
48284,29767
48294,29543
48305,30663
48315,29879
48326,30487
48336,30807
48346,31751
48357,31111
48367,31815
48378,31943
48388,32679
48398,33432
48412,33208
48422,32583
48433,30359
48443,30455
48454,29463
48464,28919
48474,29511
48484,29863
48495,29607
48505,29831
48516,36696
48526,49964
48537,40713
48547,9282
48557,27366
48568,29415
48578,30743
48589,32311
48599,31111
48609,32423
48620,33192
48630,33368
48641,34488
48651,34088
48661,34792
48672,36376
48682,36905
48693,39353
48703,40970
48713,41322
48724,40073
48734,40281
48745,38889
48755,37561
48765,32647
48776,31767
48786,31159
48797,30407
48807,30359
48817,29895
48828,29255
48838,30135
48849,31623
48859,31591
48869,31223
48880,31367
48890,31831
48901,32968
48911,33208
48921,33480
48932,34600
48942,33848
48953,32776
48963,31463
48973,29367
48984,31703
48994,29735
49005,29719
49015,29735
49025,30407
49036,31415
49046,36056
49056,50716
49067,43050
49077,10274
49088,25462
49098,30615
49108,32039
49119,31815
49129,31831
49140,33448
49150,32920
49161,33928
49171,33112
49181,34312
49192,35336
49202,36536
49213,38105
49223,40457
49233,40905
49244,41562
49254,40409
49265,40361
49275,39385
49285,36120
49296,33640
49309,31463
49320,30935
49331,31287
49341,30151
49352,29239
49362,30087
49373,30615
49383,30679
49393,31319
49404,31959
49414,31975
49425,32279
49435,31047
49445,31383
49456,32904
49466,33288
49477,34648
49487,33896
49497,33880
49508,32551
49518,30359
49529,30439
49539,30471
49549,30567
49559,29287
49569,30439
49579,31015
49590,30935
49600,37529
49611,51628
49621,40953
49631,10194
49642,27366
49652,31287
49663,31639
49673,32279
49684,32519
49694,32824
49704,32583
49715,33976
49725,33208
49736,34216
49746,35560
49756,35880
49766,38009
49777,39961
49787,40953
49798,40473
49808,40857
49819,40041
49829,38617
49839,36824
49850,33816
49860,32279
49871,32135
49881,30087
49892,30615
49902,29575
49912,30183
49923,31287
49933,31383
49944,30535
49954,31703
49964,32711
49975,31959
49985,31623
49996,31607
50006,32135
50016,31495
50027,30951
50037,31671
50048,31255
50058,31495
50068,32215
50079,33288
50089,34696
50100,34712
50110,33352
50120,32599
50131,30567
50141,29895
50152,31047
50162,30183
50172,30743
50182,30791
50196,30247
50206,37081
50217,49131
50227,48315
50238,11586
50248,25798
50259,31879
50269,31831
50279,31399
50290,32679
50300,33576
50311,32840
50321,33672
50331,33576
50342,35544
50352,35496
50363,35880
50373,36680
50383,39465
50393,39225
50404,40393
50414,40953
50425,40953
50435,39945
50445,38569
50455,37449
50465,32663
50476,31639
50486,31127
50496,29287
50506,30423
50516,30231
50527,30599
50537,31127
50548,31703
50558,30935
50568,31415
50579,31239
50589,31415
50600,32071
50610,31751
50620,31319
50631,31319
50641,30823
50652,31767
50662,31287
50672,32872
50683,33976
50693,34056
50704,34136
50714,32519
50724,30807
50735,31495
50745,30167
50756,30343
50766,30775
50777,30599
50787,30999
50797,30743
50808,38137
50818,51340
50829,38185
50839,12307
50849,29079
50860,31943
50870,31367
50881,31527
50891,32487
50901,32792
50912,34072
50922,34376
50933,34456
50943,34824
50953,35384
50964,36808
50974,36937
50985,39353
50995,40970
51005,40937
51016,40649
51026,40601
51037,40521
51047,37961
51057,35432
51068,33384
51081,30679
51118,31319
51129,31431
51139,30823
51150,30775
51160,31335
51171,31655
51181,31335
51191,32519
51201,32727
51211,31367
51222,31127
51232,30695
51242,31591
51253,32872
51263,34360
51273,34728
51284,34568
51294,32727
51305,30551
51315,29991
51325,29895
51336,30503
51346,30727
51357,30119
51367,30919
51378,30903
51388,39209
51398,51436
51409,34648
51419,11538
51430,28999
51440,31175
51450,32055
51461,32055
51471,33000
51482,32183
51492,33720
51502,33560
51513,33752
51523,35336
51534,35736
51544,36552
51554,38409
51565,39801
51575,40169
51586,40409
51596,41050
51606,40217
51617,39449
51627,37609
51638,34024
51648,31831
51658,31447
51669,29543
51679,30807
51689,29447
51700,29831
51710,30695
51721,30695
51731,31815
51741,31191
51752,30759
51762,31959
51773,32055
51783,32631
51794,32711
51804,34600
51814,34232
51825,33176
51835,31511
51846,30343
51856,28326
51866,29815
51876,29671
51887,29415
51897,28743
51908,30407
51918,33304
51928,44058
51938,50060
51948,17284
51959,16179
51969,29975
51980,30615
51993,30615
52003,30983
52013,32263
52023,32359
52034,32711
52044,32311
52055,34456
52066,34248
52076,35208
52087,37065
52097,37753
52107,40953
52118,40889
52128,38665
52139,39737
52149,38473
52159,36072
52170,33976
52180,30759
52191,29767
52201,30855
52211,29591
52222,28118
52232,28903
52243,29047
52253,29783
52264,29879
52274,30679
52284,31815
52295,29767
52305,31159
52316,32135
52326,31831
52336,32968
52347,33064
52357,33000
52368,32599
52378,29799
52388,29543
52399,28262
52409,28903
52420,28614
52430,31159
52440,28550
52451,29127
52461,33928
52472,47291
52482,47451
52492,11410
52503,21205
52513,30471
52524,30791
52534,29943
52544,30535
52555,30823
52565,32423
52576,31975
52586,33128
52596,34184
52607,35160
52617,34552
52628,36008
52638,38425
52648,40425
52659,39289
52669,39801
52680,39433
52690,40233
52700,36840
52711,34088
52721,32904
52732,31031
52742,30247
52752,29031
52763,30375
52773,29671
52784,29927
52794,30887
52804,31255
52814,30231
52825,31719
52835,31527
52846,32567
52856,31367
52867,30967
52880,31783
52890,31943
52900,31911
52910,32151
52920,33976
52930,34184
52940,33400
52951,32519
52961,30391
52972,29511
52982,31495
52992,29383
53003,29927
53013,30423
53024,30631
53034,31143
53045,41162
53055,52428
53065,29671
53076,15011
53086,29143
53097,30951
53107,32327
53117,30647
53128,32471
53138,32519
53149,33992
53159,33592
53169,33592
53180,35288
53190,37017
53201,36040
53211,37641
53221,39945
53232,40585
53242,40473
53253,40745
53263,40377
53273,38665
53284,37049
53294,34376
53305,31927
53315,31527
53325,30983
53336,30087
53346,30551
53357,30791
53367,30087
53377,30695
53388,32695
53398,31959
53409,32904
53419,31703
53429,32007
53440,32439
53450,31335
53461,31927
53471,32471
53481,31191
53492,31767
53502,31671
53513,32519
53523,31479
53533,32455
53544,34840
53554,35304
53565,34456
53575,32695
53585,30583
53596,31351
53606,30679
53617,30759
53627,30567
53637,30855
53648,31767
53658,33320
53668,41370
53679,53052
53689,28582
53700,13555
53710,30055
53720,31911
53731,32904
53741,32743
53752,33080
53762,32792
53775,33496
53786,33352
53797,35032
53807,35912
53817,36680
53827,37417
53838,37785
53848,40073
53859,41114
53869,39977
53880,40345
53890,40073
53900,38617
53911,36520
53921,33576
53932,32727
53942,31687
53952,30567
53963,30871
53973,30343
53983,30599
53994,31303
54004,30839
54015,32343
54025,31879
54036,32183
54046,32439
54056,31575
54067,32840
54077,32679
54088,31527
54098,31255
54108,31319
54119,32519
54129,31543
54140,31959
54150,33608
54160,35288
54170,34248
54181,34248
54191,33896
54202,31191
54212,31015
54222,30727
54233,30983
54243,30887
54254,30999
54264,30919
54274,31175
54284,38681
54294,51468
54305,44474
54315,10338
54326,27062
54336,32087
54346,31207
54357,32856
54367,32808
54378,32824
54388,33560
54398,34184
54409,33240
54419,34664
54430,35016
54440,35720
54450,38233
54461,38697
54471,39913
54482,40393
54492,41562
54503,40201
54513,39993
54523,37321
54534,35304
54544,33128
54555,31159
54565,30759
54575,30407
54585,29751
54596,29655
54606,31303
54617,30775
54627,31207
54638,30583
54648,31383
54687,32231
54698,31239
54708,31879
54719,30167
54729,31239
54740,30871
54750,30823
54761,31975
54771,33048
54781,34472
54792,33720
54802,34264
54812,31335
54822,30919
54833,29383
54843,30087
54854,30359
54864,30695
54874,30359
54884,31031
54894,31127
54905,40393
54915,51148
54926,32039
54936,13331
54947,30439
54957,31847
54967,31959
54978,32519
54988,32343
54999,31943
55009,32599
55019,33416
55030,33432
55040,34728
55051,35816
55061,37097
55071,37449
55082,37865
55092,40153
55103,39785
55113,41226
55123,40425
55133,40521
55144,37321
55154,35368
55165,33128
55175,31655
55185,29959
55196,31047
55206,29095
55217,30087
55227,30135
55238,30407
55248,30759
55259,30423
55269,32055
55279,30631
55290,31623
55300,31415
55311,31639
55321,30871
55331,31271
55342,30775
55352,31127
55363,30935
55373,32679
55383,33576
55394,34504
55404,33576
55415,33528
55425,31159
55435,31063
55446,29655
55456,30055
55467,30375
55477,29991
55487,31319
55498,31767
55508,36184
55519,49756
55529,44362
55539,10082
55550,26966
55560,31943
55573,30887
55584,31255
55595,34152
55605,31079
55616,33288
55626,34024
55637,34344
55647,34680
55658,35992
55668,35848
55679,37337
55689,39401
55699,40025
55710,40169
55720,40377
55731,40393
55741,40009
55751,37913
55762,35368
55772,31847
55783,31239
55793,29399
55803,29799
55814,29863
55824,29831
55835,31639
55845,29847
55855,31079
55866,30855
55876,31831
55887,31031
55897,30535
55907,31895
55918,31543
55928,33192
55939,32663
55949,33736
55959,33512
55970,32840
55980,30615
55991,29751
56001,29479
56011,31143
56022,28871
56032,29095
56043,30375
56053,30359
56063,36776
56074,51212
56084,40601
56095,9778
56105,27190
56115,30151
56126,31031
56136,32023
56147,31879
56157,34168
56167,32487
56178,32695
56188,34536
56199,35256
56209,34984
56219,35800
56230,37177
56240,39401
56251,41130
56261,41290
56271,40697
56281,40953
56292,40473
56302,36985
56313,34328
56323,32936
56333,32231
56343,30871
56353,30375
56364,30231
56374,30247
56385,31335
56395,30215
56406,30551
56416,31191
56426,32183
56437,32391
56447,31943
56458,32535
56471,31815
56481,33592
56492,33304
56502,33416
56513,34632
56523,33944
56533,32023
56544,30599
56554,29911
56565,30759
56575,30471
56585,30791
56595,30103
56606,29767
56616,31431
56627,42090
56637,51772
56647,31783
56657,12451
56667,29495
56678,31911
56688,30599
56699,30919
56709,32727
56719,32808
56730,33048
56740,33736
56751,33992
56761,35688
56771,34696
56782,36152
56792,37721
56803,39193
56813,41386
56824,40745
56834,40713
56844,40729
56855,40185
56865,36440
56876,33448
56886,32551
56896,31559
56906,30535
56916,31063
56926,29543
56937,29863
56947,30487
56958,33048
56968,29783
56978,30423
56989,32391
56999,33576
57010,31031
57020,31447
57031,32231
57041,34008
57051,29975
57062,30439
57072,32055
57083,33032
57093,34872
57103,34376
57114,34024
57124,32792
57135,31207
57145,30775
57155,28775
57166,29639
57176,30839
57187,30391
57197,30503
57207,33256
57218,44810
57228,53212
57239,19380
57249,16708
57259,29975
57270,31735
57280,32327
57291,31639
57301,33192
57311,31591
57321,32743
57332,35304
57342,33000
57355,35528
57365,35160
57376,37705
57386,38681
57397,39961
57407,40073
57417,41034
57428,41530
57438,38489
57448,38409
57459,36760
57469,33720
57480,31895
57490,30951
57500,31303
57511,30455
57521,30087
57532,29991
57542,30151
57553,31255
57563,31975
57574,31815
57584,32583
57594,31639
57605,32519
57615,30887
57625,31895
57635,31239
57646,31415
57656,31719
57667,31799
57677,31655
57687,31367
57698,31879
57708,32535
57719,34120
57729,34632
57740,34024
57750,32727
57761,30919
57771,29975
57781,30743
57792,30903
57802,30807
57813,30887
57823,30615
57833,33256
57844,46155
57854,51948
57865,19156
57875,17300
57885,31303
57896,32872
57906,31783
57917,31815
57927,34536
57937,31831
57948,32888
57958,33880
57969,33816
57979,35080
57989,36376
58000,36905
58010,38233
58021,39065
58031,40201
58041,40457
58052,39945
58062,40633
58072,39017
58083,36808
58093,34536
58104,32567
58114,31879
58124,30631
58135,29927
58145,30855
58156,30535
58166,30135
58176,30823
58187,31719
58197,31319
58208,31879
58218,32952
58228,33240
58269,30935
58280,32359
58290,31703
58300,31767
58310,33704
58320,35912
58331,35576
58341,31991
58352,32519
58362,29255
58373,30615
58383,29863
58394,30039
58404,30519
58415,30743
58425,30855
58435,36056
58446,48267
58456,49340
58467,11554
58477,23269
58487,30855
58498,31175
58508,32551
58519,32407
58529,32151
58539,33000
58550,33240
58560,33336
58571,34328
58581,34648
58591,35880
58602,37609
58612,37929
58623,39849
58633,40617
58643,41002
58654,40249
58664,39481
58675,39273
58685,36376
58695,32439
58706,31927
58716,31031
58727,29879
58737,30439
58747,31335
58758,29367
58768,31463
58779,30023
58789,30951
58799,31703
58810,31847
58820,32551
58831,32327
58841,32551
58851,31847
58862,30983
58872,31079
58883,32055
58893,31063
58903,31271
58913,31447
58924,32663
58934,32231
58945,32279
58955,35032
58966,34984
58976,33176
58986,31911
58997,31175
59007,31095
59018,31335
59028,30423
59038,31271
59049,31639
59059,30759
59070,34312
59080,45515
59090,52396
59101,17492
59111,19060
59122,30615
59132,32103
59145,31511
59156,33352
59167,32936
59177,33048
59187,33416
59197,34008
59208,34648
59218,35144
59229,36792
59239,36840
59250,38553
59260,38841
59270,40953
59281,40777
59291,41450
59302,39801
59312,38057
59322,35768
59332,34504
59343,32151
59353,31991
59364,30391
59374,30023
59385,30519
59395,30471
59405,30183
59416,30807
59426,31447
59437,30855
59447,32231
59457,32391
59468,31719
59478,32503
59489,30855
59499,31575
59509,32007
59520,31175
59530,31879
59541,32487
59551,31255
59562,33736
59572,34776
59582,33960
59593,33960
59603,30487
59614,30663
59624,30727
59634,29703
59645,30599
59655,30679
59666,30631
59676,30903
59686,34504
59697,48283
59707,50876
59718,14691
59728,19844
59738,30919
59749,32087
59759,31991
59770,32808
59780,32503
59790,33608
59801,33160
59811,33624
59822,34824
59832,34504
59842,35672
59852,37529
59863,37913
59873,39081
59884,41050
59894,41146
59905,41050
59915,39913
59925,39497
59936,36696
59946,33544
59957,32231
59967,31799
59978,30279
59988,30535
59998,30967


